337
333
335
339
343
345
344
343
341
341
342
342
341
341
340
340
338
340
342
345
345
345
345
345
345
345
344
346
348
349
349
350
352
353
352
350
347
344
342
343
344
346
347
346
346
345
345
345
344
344
345
345
346
347
346
343
340
336
333
333
335
337
340
342
341
341
341
338
332
327
323
323
324
325
327
330
330
329
330
332
334
335
334
331
329
326
320
318
318
317
318
319
319
320
319
318
318
319
321
322
323
325
328
329
329
329
330
330
330
331
333
334
337
339
342
345
348
348
349
351
353
352
349
344
341
338
336
335
337
336
335
333
337
345
349
350
350
352
352
350
348
346
344
343
345
348
350
353
355
359
361
361
358
357
359
362
364
363
359
353
346
341
340
342
343
339
335
332
329
330
334
333
330
325
318
314
314
316
319
321
321
318
319
320
320
319
317
314
315
315
316
317
317
317
320
322
323
323
324
324
325
326
327
332
337
341
340
337
332
328
326
325
327
331
332
334
334
334
330
326
324
322
319
316
315
311
311
311
313
315
317
316
313
310
309
310
308
307
303
298
295
294
294
293
295
301
312
328
354
380
409
437
462
478
485
483
475
462
437
390
323
250
192
171
149
147
158
177
197
215
229
242
252
257
259
259
258
257
256
257
257
256
254
249
245
239
235
231
231
235
240
248
255
262
266
270
270
268
265
259
253
247
244
244
247
252
260
273
287
299
307
309
306
298
290
283
279
277
277
277
280
282
288
293
296
296
294
291
286
280
276
277
282
290
300
310
319
327
329
333
338
345
354
366
378
389
397
401
402
405
405
408
410
414
420
428
435
439
438
434
427
420
413
403
394
388
385
386
387
389
392
395
397
398
400
399
398
398
399
399
399
398
399
400
403
407
412
420
432
456
483
491
498
493
482
477
477
482
484
482
483
486
484
472
451
429
409
390
368
354
348
342
338
340
357
386
418
454
480
495
496
489
480
474
468
467
472
481
487
484
473
460
447
443
437
434
435
441
448
454
463
469
477
486
495
503
513
522
527
525
515
497
478
455
434
423
401
378
357
341
331
325
321
317
315
319
326
333
338
340
337
332
326
319
314
310
307
304
302
302
304
304
307
314
319
321
319
314
307
297
291
294
305
322
336
341
340
337
331
327
329
339
354
369
380
382
377
370
367
369
374
379
383
384
381
373
361
351
344
341
339
340
344
347
348
349
348
349
349
352
352
352
347
338
331
329
331
336
343
351
356
367
379
389
393
394
393
392
390
387
382
374
366
361
363
367
371
373
373
371
368
367
364
364
365
363
361
357
354
350
345
337
329
322
317
316
315
313
308
305
304
306
309
312
320
328
334
337
338
336
336
339
346
353
358
364
369
371
368
363
355
349
344
344
346
351
358
364
370
375
377
378
376
374
365
356
346
338
331
327
327
329
333
336
340
341
342
342
341
338
335
329
327
327
331
333
336
338
339
338
337
337
340
340
337
331
323
319
311
305
303
301
301
298
293
280
265
248
231
218
206
196
186
174
162
150
138
128
123
116
112
112
112
116
118
117
113
104
95
90
84
82
81
80
80
80
79
78
75
72
66
58
50
41
30
15
0
0
0
0
0
6
30
65
106
151
191
223
241
245
243
239
228
201
152
86
14
0
0
0
0
0
6
34
70
109
149
185
215
236
247
253
254
259
263
271
277
283
289
297
308
318
324
326
326
324
320
317
315
317
323
336
351
359
374
385
393
398
403
408
412
415
418
417
415
415
418
425
432
443
452
458
459
455
449
448
442
439
438
436
437
440
449
463
482
504
524
538
547
553
555
554
549
543
541
544
547
554
557
555
549
541
535
536
537
543
552
560
568
572
572
567
561
555
550
548
547
550
555
561
571
581
590
598
604
601
597
591
588
582
577
573
570
570
571
573
571
566
559
555
548
543
538
531
524
513
500
484
467
449
434
425
421
421
425
430
431
433
436
440
440
441
437
430
423
414
400
385
370
359
354
354
358
363
371
382
396
414
429
438
442
442
439
434
428
425
425
428
433
438
444
454
467
479
486
485
482
479
476
473
470
463
457
451
446
440
434
424
409
394
380
367
353
339
320
302
284
264
244
222
199
178
162
146
138
119
97
72
46
21
0
0
0
0
0
0
0
0
0
0
0
0
0
0
0
0
0
15
56
111
175
240
301
356
400
425
433
427
412
386
372
376
383
385
384
377
371
370
370
376
385
401
422
447
471
490
506
521
537
547
548
537
518
491
457
418
380
347
332
302
279
267
266
271
278
282
283
282
276
268
258
246
230
217
208
208
214
218
215
210
197
188
184
182
188
202
223
250
284
317
346
370
395
422
445
461
469
472
472
470
472
473
479
488
501
516
530
540
543
540
534
530
532
537
540
536
526
509
490
471
457
444
440
432
429
431
433
435
438
439
433
415
389
365
347
337
334
339
348
362
377
392
407
416
436
455
469
474
471
462
451
437
426
419
415
412
410
409
411
414
418
422
426
426
426
425
424
425
428
433
439
445
450
453
453
453
455
458
462
466
471
479
482
482
480
475
472
466
459
451
440
431
419
410
404
400
394
387
377
369
362
358
355
355
353
350
345
342
338
334
327
314
301
292
288
292
302
316
334
353
374
398
418
431
436
434
432
432
438
442
452
471
503
543
586
629
673
698
699
700
700
700
700
700
699
688
622
531
452
400
386
377
396
427
458
484
501
509
506
497
484
468
452
438
424
413
401
389
376
365
351
344
331
316
305
301
303
312
325
342
360
378
394
405
413
418
417
411
404
400
396
396
397
397
395
384
371
362
359
354
352
346
336
325
314
304
301
305
318
336
354
370
387
400
404
410
411
413
416
425
442
466
487
500
502
500
494
486
480
477
481
489
498
513
526
532
544
556
572
590
606
618
628
635
640
643
646
648
653
659
667
674
675
672
666
669
674
679
689
694
694
691
686
674
656
633
613
594
579
568
559
552
541
527
507
486
466
446
442
441
469
529
573
574
542
499
453
413
377
348
322
296
270
241
210
182
164
156
156
157
164
172
177
177
175
172
172
172
176
180
183
181
178
183
198
225
260
291
311
319
319
317
311
306
304
303
302
305
310
317
325
331
342
351
365
379
391
401
410
414
416
413
412
407
400
396
393
391
392
397
401
407
413
417
417
414
404
391
378
370
367
370
377
382
393
408
424
442
458
472
483
486
481
470
458
447
438
431
429
433
444
463
487
514
539
549
560
556
541
520
500
489
490
499
510
516
517
506
490
472
454
437
424
413
407
403
404
402
399
393
382
371
356
343
334
330
327
329
331
330
325
318
305
294
287
285
287
289
295
299
296
289
280
273
265
259
250
237
224
212
205
203
205
209
216
226
239
254
268
274
282
289
293
293
293
293
294
295
297
300
309
319
331
341
353
356
357
355
353
352
353
356
360
365
368
370
370
370
369
368
367
366
365
361
357
352
345
339
332
328
323
321
316
314
313
315
319
326
331
337
341
348
352
355
354
350
345
342
337
335
330
326
320
319
318
320
325
333
340
344
345
341
333
324
314
304
295
288
282
275
271
266
262
259
258
257
254
251
249
244
238
231
228
229
234
245
262
284
308
334
360
385
406
423
427
427
417
399
371
329
274
207
139
88
61
59
74
102
138
176
211
240
263
282
298
311
323
329
337
342
343
342
343
344
348
353
358
361
364
367
373
380
388
394
397
394
386
378
371
361
350
344
339
335
332
328
321
316
308
303
301
302
306
311
317
319
318
315
312
312
311
313
315
319
324
329
335
341
346
352
357
363
366
373
376
379
378
377
376
375
375
376
377
378
381
383
386
388
391
390
391
392
393
395
394
393
392
393
396
401
407
414
417
421
423
423
421
421
421
421
421
420
421
422
421
423
427
432
438
442
442
438
430
425
416
407
394
384
374
365
355
348
341
335
330
325
320
317
313
307
301
296
291
289
289
289
290
290
290
289
289
287
286
286
287
290
294
300
306
312
319
321
323
323
323
322
322
321
322
325
326
327
327
325
323
321
318
315
312
309
307
306
306
307
308
307
306
306
304
302
299
297
295
295
296
298
299
300
300
301
301
300
299
299
300
300
301
305
310
312
318
321
324
327
329
331
334
336
338
339
339
338
336
334
333
333
333
333
333
332
331
331
332
333
334
334
334
332
331
330
331
332
334
336
335
334
333
333
332
331
329
330
329
328
327
326
325
326
324
325
325
325
324
323
322
321
321
321
320
321
322
323
323
323
324
326
328
329
331
331
331
329
329
327
329
331
333
334
334
333
332
331
331
333
334
334
333
330
328
326
325
325
325
325
324
321
320
318
319
318
319
319
320
323
326
328
330
332
333
333
332
331
331
332
333
335
337
339
342
344
346
347
349
350
350
351
352
352
353
351
349
344
342
340
339
338
337
335
335
334
334
335
337
336
334
331
327
324
324
323
325
329
335
341
345
348
347
347
343
337
332
326
322
320
320
322
326
329
333
336
340
343
343
344
344
346
347
352
358
371
389
413
440
469
493
510
515
508
493
472
440
419
362
292
220
167
138
130
142
166
197
228
256
281
301
318
331
340
346
350
354
356
357
358
357
355
353
352
352
353
352
350
350
349
348
348
349
350
351
353
356
360
362
364
364
365
366
367
366
364
363
363
363
364
365
367
367
366
364
363
361
362
363
365
368
369
371
372
375
374
376
377
378
378
378
379
381
382
384
385
385
385
386
387
391
394
396
399
400
401
404
406
409
411
415
419
424
426
429
431
434
437
441
444
447
449
448
446
441
436
429
426
426
428
429
430
431
432
432
433
434
433
430
426
421
416
413
410
408
406
403
400
396
394
392
390
388
385
380
373
367
361
357
356
356
357
356
354
349
344
342
337
332
327
323
316
314
316
318
323
326
328
329
326
326
326
326
327
329
331
333
333
331
327
325
324
324
326
330
334
335
333
333
333
334
335
334
333
331
331
331
332
331
330
331
333
335
339
342
344
345
345
345
344
341
338
336
335
335
334
335
335
336
336
336
337
339
339
341
342
342
343
343
342
342
343
344
346
349
349
353
353
352
349
348
348
348
350
355
359
363
362
358
350
341
334
327
324
323
324
326
330
332
334
334
333
332
333
333
336
339
341
343
343
343
342
341
341
340
340
341
340
339
339
340
341
344
347
349
351
351
350
349
347
346
347
349
350
349
348
345
342
341
342
345
345
349
351
351
351
348
347
347
348
349
349
349
351
352
353
352
353
351
351
351
351
349
347
344
344
343
344
346
349
349
353
357
362
363
364
363
361
358
356
356
356
357
357
356
353
347
342
339
335
333
332
332
331
333
332
335
337
339
339
338
336
334
333
332
333
336
337
339
339
339
339
340
341
342
343
343
342
341
340
342
345
350
360
379
402
431
461
489
513
528
531
529
517
495
463
413
349
274
204
152
125
122
135
162
193
226
257
283
305
323
337
343
348
353
356
360
363
364
365
366
364
363
362
363
364
365
368
369
370
369
370
372
371
371
369
368
367
367
368
369
370
374
376
377
376
378
378
377
379
378
378
378
378
378
378
381
382
385
387
388
386
388
386
385
386
386
389
392
395
396
395
394
394
393
393
394
394
396
397
400
403
407
410
414
417
420
420
420
422
425
428
430
433
435
435
433
433
434
436
438
440
441
442
443
444
445
445
444
443
442
441
439
437
436
435
435
433
430
429
424
419
414
408
403
400
398
397
393
389
386
380
373
367
363
360
357
353
351
350
350
352
353
354
353
350
344
339
334
331
330
330
332
332
334
335
337
338
340
343
343
342
340
333
330
327
326
326
328
329
331
332
333
335
336
338
339
338
339
340
340
342
342
341
341
340
339
339
338
337
336
337
340
340
340
339
339
339
338
338
339
339
339
339
339
339
343
346
351
352
352
352
350
348
346
344
342
341
340
337
335
332
334
334
334
336
338
340
342
342
341
339
337
336
337
338
338
339
339
341
344
347
351
353
353
351
349
348
346
341
341
340
340
339
337
336
336
337
340
343
344
344
345
343
341
341
342
343
344
343
343
343
344
344
345
344
345
342
344
343
342
341
341
343
344
346
348
350
352
351
351
351
351
351
350
348
347
347
348
351
357
364
368
371
371
368
362
356
351
347
346
346
349
350
351
352
354
353
353
353
352
352
352
351
350
350
347
344
342
340
336
336
337
338
341
343
344
343
343
342
343
344
346
345
345
345
344
343
341
341
342
345
348
350
350
348
344
340
337
336
339
342
351
366
387
413
441
469
496
517
528
527
513
490
458
438
381
310
234
171
132
121
131
156
189
224
255
280
299
314
326
338
347
355
360
364
365
365
364
362
362
363
364
365
366
365
363
361
361
362
364
363
363
362
363
365
367
367
371
371
371
370
369
369
368
369
371
373
374
374
375
377
380
381
380
379
378
377
376
376
377
379
384
387
390
392
391
390
389
388
389
391
393
395
397
399
401
402
404
406
407
410
414
415
417
419
419
420
420
420
423
424
426
427
430
431
434
435
435
434
434
436
438
441
444
445
445
442
438
435
433
432
433
433
431
429
426
422
419
414
414
413
412
412
410
405
399
394
389
386
383
378
374
369
364
358
354
353
353
352
349
346
341
340
339
339
340
340
341
339
336
334
331
330
330
332
334
335
335
334
333
333
333
333
333
334
333
333
332
332
333
333
332
332
333
335
337
340
342
343
343
342
340
338
336
332
330
329
330
332
332
334
336
336
337
338
339
341
340
339
339
338
339
340
342
344
345
343
343
341
340
341
343
345
347
346
345
344
343
342
342
343
345
344
343
341
342
341
341
341
342
343
343
344
343
342
341
341
342
342
345
345
344
343
342
342
342
343
344
341
340
340
338
339
342
346
347
348
347
346
344
342
340
339
337
338
338
340
341
342
344
345
345
344
344
343
342
341
340
341
342
344
348
351
354
355
355
354
354
353
352
351
350
350
349
351
354
357
358
356
356
354
353
353
352
350
347
345
342
341
340
340
339
339
338
338
337
337
336
336
336
338
337
337
336
336
336
337
339
341
341
341
341
341
339
338
337
336
336
336
336
335
334
333
335
337
344
355
373
394
418
444
471
496
513
520
514
507
486
452
402
336
259
188
142
122
124
144
174
208
241
267
289
306
316
323
332
340
348
352
358
361
361
361
357
355
354
356
355
356
359
359
360
362
364
367
367
366
365
364
361
360
359
359
359
359
359
359
361
363
365
368
369
370
370
371
372
372
373
375
377
377
379
380
381
379
378
378
378
379
381
384
387
389
390
390
391
389
391
393
394
395
395
396
398
400
403
407
409
410
411
413
416
420
421
422
422
421
421
419
419
423
426
430
431
433
432
431
431
431
432
432
433
432
429
426
423
422
421
420
419
417
416
413
410
408
406
403
401
398
394
387
379
371
365
358
355
353
353
352
350
347
344
342
340
338
335
334
332
329
328
329
330
331
331
330
328
326
324
324
323
324
326
327
329
329
330
330
330
330
331
331
329
329
327
326
326
327
327
328
329
329
328
328
329
329
330
331
334
335
336
337
338
338
338
337
336
334
333
334
335
337
340
343
345
347
348
348
347
344
344
344
343
343
343
344
343
343
342
342
340
340
340
340
340
344
345
347
348
349
348
347
346
342
338
336
334
335
337
338
340
342
345
348
350
352
352
349
346
344
344
344
345
345
346
344
342
338
336
334
333
333
335
337
338
337
338
337
337
340
343
346
349
349
347
345
341
339
339
339
338
336
333
330
328
326
326
326
328
331
335
339
340
342
345
348
349
352
355
358
361
365
368
371
370
370
368
365
361
358
357
356
356
356
353
349
346
346
347
349
351
350
350
348
346
344
341
339
339
338
340
343
347
350
353
355
355
353
348
346
345
342
342
346
350
355
357
357
353
347
341
337
336
337
339
338
336
334
334
338
341
348
361
379
402
426
452
481
507
527
535
533
516
491
452
395
324
247
183
142
129
131
150
180
214
247
277
303
323
337
346
351
354
356
359
361
361
361
361
360
359
358
355
354
351
348
346
348
353
360
365
366
367
365
364
363
365
368
370
375
379
383
384
384
381
378
375
373
374
375
376
376
375
376
377
381
383
385
386
385
384
384
384
388
389
389
389
389
391
391
393
394
395
395
396
399
401
402
404
406
409
412
415
417
420
421
421
421
421
422
423
426
428
431
433
435
437
441
446
451
455
455
453
450
448
448
448
449
448
448
444
442
437
432
426
421
417
415
413
412
410
408
403
399
396
390
383
379
374
372
367
364
363
361
361
358
356
353
351
348
344
340
336
335
333
332
333
334
336
339
343
343
342
340
338
335
333
332
332
333
332
330
328
325
321
322
322
322
323
326
329
332
333
335
336
337
335
332
328
324
322
322
324
327
330
334
337
341
343
344
345
347
344
345
342
340
339
340
339
341
342
340
341
340
341
341
342
342
341
339
338
338
338
339
341
342
342
343
343
341
341
341
342
341
342
341
340
339
337
336
337
339
340
340
341
339
339
338
339
341
344
348
350
350
348
346
344
342
341
340
340
340
339
340
340
339
339
339
339
337
336
336
337
339
341
343
345
346
347
346
347
346
346
347
348
346
346
344
343
342
344
346
347
346
343
340
338
338
338
339
340
340
340
340
340
340
340
342
342
342
343
344
345
346
347
349
351
352
350
349
345
341
342
343
344
347
349
351
350
350
348
348
351
354
358
359
359
358
358
358
359
359
361
360
358
356
355
353
353
353
354
354
353
353
351
349
347
345
344
342
340
339
338
338
338
339
340
342
343
343
344
344
344
345
345
346
345
345
342
340
339
339
340
343
344
344
343
342
342
342
342
342
343
345
348
349
357
372
394
420
450
478
503
520
524
517
501
477
440
384
314
240
179
142
132
144
171
187
221
253
281
303
321
335
345
352
354
356
356
356
356
357
357
358
359
359
359
358
360
361
363
366
365
364
363
363
365
367
368
371
371
371
371
371
371
371
373
375
378
379
380
381
382
382
383
383
386
386
387
389
388
388
388
388
390
390
392
392
392
392
391
391
392
393
393
395
396
397
398
400
402
403
406
408
408
409
410
412
414
417
418
421
421
424
424
425
426
428
431
434
436
438
439
439
438
439
439
439
441
442
442
440
438
436
434
430
427
424
422
420
419
418
416
412
410
405
401
397
392
388
386
382
380
377
373
370
365
360
356
352
350
348
346
344
341
339
337
335
334
334
333
332
330
330
330
330
330
330
330
330
329
329
327
329
331
333
334
334
332
329
327
327
326
327
328
331
331
330
328
328
327
329
331
334
335
336
336
336
337
337
339
339
339
339
339
339
339
340
340
341
342
343
342
343
343
341
342
343
344
343
342
341
340
339
341
343
343
344
342
342
341
340
339
339
339
341
340
341
341
342
340
341
342
344
344
344
345
345
345
345
345
345
343
342
342
341
341
341
342
343
343
343
342
342
341
341
341
342
341
340
340
337
336
337
338
340
342
342
341
340
340
339
339
341
342
343
342
341
339
337
338
338
339
340
340
340
339
338
338
338
339
340
340
340
340
342
342
342
343
343
343
343
342
343
342
343
344
345
345
344
345
344
343
344
346
348
346
345
344
344
343
342
342
344
345
346
346
346
346
347
347
347
349
348
349
348
348
346
346
348
349
350
351
351
352
350
350
351
352
354
356
358
359
359
359
359
359
360
360
360
360
361
360
360
360
360
360
359
357
356
353
351
350
350
349
349
349
348
347
347
347
348
348
347
346
345
345
345
345
345
345
345
344
345
345
345
344
345
347
347
347
346
347
345
346
346
347
347
347
346
344
343
345
350
361
378
401
427
455
483
507
525
531
526
509
487
447
391
315
237
175
139
130
134
155
184
216
247
272
293
309
321
332
341
347
352
357
361
364
364
365
364
363
361
360
361
362
364
364
365
366
365
365
366
367
368
369
370
370
368
367
367
368
371
374
377
377
376
375
374
374
375
376
376
377
378
379
381
382
384
385
385
386
388
387
386
387
388
390
392
394
396
395
395
395
395
395
399
403
406
407
407
407
408
409
412
414
415
417
419
421
423
424
426
427
429
430
430
431
432
435
435
436
436
437
438
439
439
439
438
437
438
437
436
433
431
429
427
425
423
422
419
416
412
408
404
401
398
394
389
383
381
376
372
369
367
365
361
358
354
352
350
347
344
342
341
340
338
337
336
335
336
338
338
339
338
337
335
335
335
337
338
339
339
337
336
335
335
335
336
337
337
335
333
333
332
332
333
334
335
335
334
333
332
333
335
337
338
337
337
337
336
337
339
341
341
340
341
341
341
341
343
344
344
344
344
343
345
344
344
345
346
346
346
346
346
346
347
348
348
349
347
347
346
346
346
346
346
345
343
343
343
342
343
343
344
345
345
345
343
342
341
341
341
342
343
342
341
341
341
342
342
343
344
343
341
339
338
338
338
340
343
343
344
343
341
340
338
338
339
339
340
339
339
338
338
340
341
341
342
342
343
344
345
345
345
345
344
344
343
341
341
341
343
345
346
346
345
345
343
345
346
347
348
349
348
347
346
346
347
348
349
348
347
346
346
346
348
349
351
354
355
356
357
356
356
356
358
359
358
358
358
357
356
355
355
355
356
357
358
355
352
349
347
346
345
344
343
343
343
344
345
347
347
347
345
343
342
341
340
341
342
344
346
346
345
344
344
344
344
344
343
343
342
341
340
341
342
343
344
344
342
341
340
342
349
362
371
393
417
444
471
497
515
522
518
503
480
444
390
321
248
188
153
142
152
174
205
237
251
275
294
309
320
330
336
343
349
355
358
361
362
361
357
355
353
353
354
356
358
358
360
361
361
362
363
362
363
363
363
363
363
363
365
367
368
368
367
367
367
368
368
369
371
372
373
373
372
372
373
373
375
378
379
380
379
379
380
382
383
385
386
385
385
385
385
386
387
389
391
393
393
392
393
394
397
400
403
406
406
405
406
409
411
412
414
418
419
419
420
423
425
428
430
431
431
431
430
430
430
431
431
431
430
429
429
427
425
424
424
422
420
416
413
407
404
399
395
393
389
385
381
374
369
365
361
359
358
356
352
348
343
342
340
339
338
336
335
333
332
333
332
333
334
334
332
331
330
329
329
331
333
335
336
337
335
334
333
332
333
333
333
331
329
328
328
328
329
331
331
331
330
328
327
327
328
331
333
334
334
334
335
336
336
337
337
337
336
336
336
337
339
340
342
343
342
341
340
341
340
341
342
343
343
343
342
342
342
342
343
344
344
344
343
343
343
343
345
345
346
346
345
344
343
343
344
344
345
345
344
343
343
344
344
345
347
346
345
345
345
344
344
345
346
347
345
345
346
345
344
344
345
345
345
344
344
343
343
343
344
344
343
342
342
342
340
341
342
343
344
343
343
343
342
342
343
344
343
344
344
343
342
342
342
343
343
344
345
345
343
343
344
346
347
348
348
348
347
346
345
347
349
348
348
347
348
346
345
345
345
346
348
348
349
348
348
348
350
352
353
355
356
357
357
357
358
359
359
359
358
358
357
357
357
358
359
360
360
358
356
356
353
351
349
346
344
342
341
341
342
344
345
346
345
344
342
341
341
341
341
342
343
343
344
343
343
343
345
345
347
348
349
348
348
347
346
345
345
344
345
345
348
357
364
384
410
436
464
489
507
516
512
500
480
450
403
340
268
207
167
154
161
182
211
225
253
276
296
313
327
337
345
350
353
356
356
357
358
360
360
361
358
359
358
358
359
360
362
363
364
364
365
366
368
369
370
370
371
370
369
369
370
372
373
375
377
376
376
376
375
374
375
376
377
378
379
378
377
377
377
379
380
382
382
382
382
384
386
387
390
391
392
392
392
394
394
395
397
399
398
400
402
404
408
411
414
417
418
418
418
418
419
420
421
424
425
427
429
430
433
433
435
436
438
436
435
434
434
434
436
435
435
434
432
429
428
424
423
421
419
417
413
408
403
398
395
391
387
382
376
371
367
366
362
361
359
357
354
350
346
344
341
340
340
339
336
335
334
333
332
332
333
334
334
334
334
333
332
333
333
334
335
336
336
335
335
334
335
336
337
336
335
335
333
333
332
333
334
334
334
333
334
332
334
335
335
335
335
335
335
334
335
336
338
340
341
342
340
339
338
339
340
341
342
341
340
340
340
341
342
343
343
343
343
342
341
342
342
341
343
343
343
343
342
342
342
342
343
343
343
342
341
340
341
342
342
343
343
343
343
341
341
341
342
343
344
344
344
341
342
343
344
345
345
344
343
342
342
342
344
345
346
346
345
344
343
342
342
343
343
343
343
342
338
339
338
339
339
340
341
341
342
342
341
342
344
345
346
345
345
344
344
345
346
348
349
349
349
348
347
347
348
348
349
349
348
347
346
346
346
347
348
349
350
348
349
349
350
352
352
354
356
356
356
356
357
358
358
359
358
357
356
356
355
355
355
356
356
357
354
352
350
349
347
346
345
345
344
342
341
341
342
343
344
343
343
342
341
340
341
343
343
344
343
343
343
343
344
345
345
345
344
342
341
341
342
342
343
342
342
339
339
344
355
373
397
426
455
471
497
518
529
527
513
491
458
408
340
265
197
153
136
143
164
194
226
255
281
303
312
328
340
347
353
356
359
360
360
360
360
360
360
359
359
358
358
360
361
363
363
363
363
363
363
363
364
365
366
366
366
365
365
365
366
368
369
370
370
371
371
372
373
374
374
376
376
375
376
378
377
379
380
381
382
382
383
383
385
387
389
391
390
391
391
389
392
393
396
397
398
399
400
401
402
405
407
410
412
413
415
417
419
421
422
425
427
427
428
429
432
433
435
437
438
437
436
435
435
434
435
437
439
438
436
433
431
430
428
427
424
420
416
412
408
406
402
398
394
389
384
380
376
372
368
364
360
357
353
351
350
347
345
343
342
341
342
340
340
338
338
338
339
339
337
336
334
333
333
333
334
337
340
344
347
349
352
351
350
347
343
339
334
329
324
321
321
323
325
328
329
329
328
328
329
331
332
334
335
335
334
334
332
333
333
334
336
337
337
337
338
339
340
341
342
343
343
342
343
344
343
344
345
347
347
347
347
346
347
348
348
348
347
346
345
346
347
347
349
350
350
350
350
348
347
347
347
347
346
344
343
343
342
343
345
345
346
346
346
346
344
343
343
344
345
346
346
345
344
345
347
349
347
346
346
343
343
342
342
343
341
343
342
341
340
338
339
340
340
341
341
339
338
338
337
337
336
336
336
337
338
339
340
344
346
348
349
347
346
344
343
345
346
348
350
350
348
347
347
346
347
349
349
349
349
349
347
347
347
346
348
347
347
348
345
345
345
347
347
348
348
348
347
345
343
344
346
348
349
349
350
350
352
353
354
356
356
355
354
352
351
351
353
352
352
353
352
351
352
351
351
352
354
355
356
355
355
355
354
354
356
355
355
355
354
354
354
355
356
359
361
363
361
359
358
357
358
359
360
361
361
362
362
363
363
362
362
362
362
362
362
361
359
358
359
356
354
352
350
349
348
348
348
348
350
350
349
347
348
346
347
346
346
343
342
340
340
342
344
346
348
346
345
344
343
343
343
346
349
352
353
352
351
349
346
343
341
341
339
343
355
376
403
434
465
494
517
528
529
523
506
482
448
396
328
255
191
153
140
150
175
210
243
271
294
314
331
344
353
360
361
363
363
362
361
358
358
358
360
361
364
368
371
374
377
379
381
380
380
379
379
379
378
378
376
375
375
375
376
378
380
382
382
383
381
379
377
377
377
378
380
382
383
381
379
377
374
373
375
378
379
382
384
386
389
391
393
393
393
392
391
391
392
394
395
398
401
402
401
401
403
402
402
401
400
397
395
397
402
408
415
420
424
427
428
430
431
432
433
436
440
444
448
449
449
446
442
439
435
434
434
433
430
425
420
416
415
413
412
409
403
398
389
383
378
375
373
374
374
375
376
371
367
362
354
350
347
344
345
347
352
358
364
368
369
366
361
354
349
344
342
346
349
351
354
358
362
364
364
362
358
353
350
347
348
350
352
352
350
347
343
339
337
338
340
344
348
350
353
354
354
353
352
351
348
346
344
343
341
341
343
347
351
354
358
360
361
362
363
364
361
361
361
358
355
353
352
350
346
344
343
342
341
340
343
350
354
358
363
367
369
368
364
362
357
356
356
358
361
361
361
360
358
357
356
355
356
356
357
358
357
358
359
359
359
359
357
358
358
358
358
356
355
355
352
350
348
347
346
345
345
345
347
348
350
354
355
358
359
358
357
354
351
349
348
349
349
348
348
347
347
347
350
350
350
350
350
349
349
348
350
350
352
353
353
350
351
352
351
349
348
346
344
342
341
340
341
341
339
340
343
345
347
349
349
347
345
343
342
342
341
341
342
343
345
347
349
351
351
352
352
353
353
353
352
349
344
342
340
340
341
340
340
339
338
335
332
331
333
338
343
345
351
354
356
357
357
356
356
356
356
354
354
353
352
351
351
353
353
351
351
348
347
345
345
347
349
351
353
354
354
355
355
356
357
359
359
361
362
363
362
363
364
364
363
360
357
356
356
355
356
356
356
354
351
348
348
348
349
351
352
351
349
347
346
344
343
342
343
344
346
347
348
346
346
346
345
343
343
342
342
343
344
345
345
344
343
341
340
340
340
343
347
353
365
381
401
424
450
474
495
510
511
500
482
455
416
359
326
256
198
165
157
169
190
216
243
264
279
290
300
308
319
331
342
352
360
365
368
368
367
363
363
364
364
365
364
362
359
356
355
354
354
351
350
352
354
357
360
365
369
375
379
379
378
377
373
370
368
367
365
361
354
343
332
326
325
329
336
345
357
371
377
388
395
398
400
399
398
397
395
394
392
389
385
381
379
378
378
381
386
394
403
407
413
418
421
421
423
424
423
423
421
419
418
419
422
426
431
435
438
439
438
435
435
432
431
431
430
428
425
423
419
418
418
418
418
416
414
410
405
401
399
399
398
395
394
389
384
380
377
375
373
371
368
366
363
360
358
357
354
351
349
347
344
341
339
338
337
336
337
338
337
336
335
335
336
338
339
338
337
335
333
331
331
332
333
333
334
334
334
336
338
340
341
340
338
337
333
330
329
331
333
336
339
339
339
338
338
339
340
341
342
342
342
341
341
344
348
350
351
350
350
349
348
348
345
345
345
345
345
344
343
343
343
344
346
347
347
345
344
344
343
343
343
343
343
343
342
341
341
338
337
334
330
326
317
310
307
307
313
323
334
347
353
359
363
366
366
363
359
355
348
340
336
331
326
325
326
329
333
337
344
348
350
349
343
334
324
315
309
307
306
311
321
326
336
343
348
352
354
354
352
349
344
337
332
329
326
321
319
317
313
306
300
300
301
310
325
346
366
380
387
389
386
381
374
368
364
364
362
361
359
354
348
344
341
341
341
340
339
338
336
331
323
316
307
298
293
292
295
302
313
326
338
348
356
362
360
360
354
349
344
340
337
335
339
345
353
359
362
360
356
353
351
352
357
362
365
366
365
360
352
343
335
330
328
330
333
335
334
331
331
331
332
334
332
331
330
332
334
340
343
350
356
360
362
364
365
368
371
374
374
374
372
368
363
358
353
349
347
345
343
342
341
341
341
339
335
329
327
327
328
331
336
341
345
345
345
345
344
342
339
334
330
324
318
315
319
330
348
373
401
431
458
481
501
515
519
512
497
478
453
414
360
293
260
205
174
168
181
204
231
256
275
290
303
317
328
340
350
357
361
359
353
347
343
341
340
339
341
341
341
341
342
345
351
360
369
378
388
397
404
406
405
401
395
388
385
381
378
375
374
372
368
360
352
347
347
353
362
374
388
399
407
411
413
414
412
409
404
393
375
359
344
335
334
342
357
377
398
418
432
439
438
433
425
416
409
405
405
407
412
417
421
420
418
412
410
409
410
411
414
416
418
421
426
433
440
444
444
440
436
427
420
417
418
424
432
441
449
453
453
449
445
443
446
448
447
443
435
426
417
408
403
396
390
383
371
356
341
329
322
321
327
338
347
352
352
350
346
348
351
352
352
352
351
352
355
356
351
342
334
325
321
321
324
328
334
340
345
347
343
337
334
335
336
339
341
342
338
332
328
331
337
344
347
343
338
331
327
325
326
331
335
338
338
336
336
336
337
341
347
350
354
355
356
355
350
345
346
351
357
362
364
363
357
353
348
345
338
335
332
328
326
324
325
332
344
355
366
373
375
372
365
360
359
360
360
355
351
343
334
327
322
322
328
338
348
355
356
352
346
342
339
343
351
357
361
364
365
362
360
353
346
343
343
348
355
360
360
361
358
352
347
343
341
341
343
346
347
347
345
346
350
356
361
363
364
364
361
359
353
349
345
341
337
331
328
326
328
333
338
342
344
343
343
345
350
358
365
368
367
361
354
347
341
334
328
325
322
321
327
335
348
362
368
377
381
380
378
375
371
368
364
359
352
347
344
341
340
341
343
344
338
331
323
320
320
328
340
355
364
372
373
368
357
346
338
335
338
343
346
348
350
350
355
362
366
372
377
378
374
368
366
367
370
370
369
365
356
347
341
339
342
349
359
367
371
372
372
372
371
368
362
354
347
342
344
354
367
379
386
387
383
377
368
355
343
332
323
321
324
335
353
370
382
385
381
370
358
347
343
343
345
345
342
337
332
323
318
314
314
319
330
342
349
352
352
348
350
354
359
366
375
384
388
388
382
374
363
352
344
336
333
326
320
314
310
311
315
327
347
376
415
455
493
527
549
553
541
517
486
450
400
370
301
229
172
141
138
156
189
226
263
295
321
342
358
367
370
366
359
353
351
352
353
357
363
366
363
356
351
349
352
357
366
369
372
369
363
354
347
348
356
368
381
390
392
392
389
390
390
391
389
386
383
379
376
376
378
379
377
376
371
366
364
365
364
363
358
356
359
368
381
393
401
404
407
408
410
412
410
404
398
394
394
400
406
412
414
418
417
414
409
405
398
391
388
392
404
418
436
448
452
447
440
433
432
433
436
439
441
447
453
457
458
457
448
441
439
439
441
445
445
442
436
428
423
419
419
417
417
417
416
415
412
405
397
391
387
387
389
391
390
384
374
362
352
346
346
349
349
342
339
328
321
319
326
335
344
352
355
355
353
347
340
333
325
319
317
315
317
320
325
332
335
340
341
338
334
330
326
324
321
322
324
328
333
337
338
335
327
320
318
321
324
325
329
333
337
340
345
352
359
364
366
365
361
354
346
340
335
335
339
344
347
349
350
350
350
351
354
353
350
341
333
330
329
332
336
339
341
340
340
339
340
338
337
335
333
329
325
326
331
339
347
352
353
352
350
348
346
345
347
346
343
338
333
328
327
327
328
329
327
324
321
320
321
324
326
323
319
319
323
331
338
345
348
351
354
355
355
353
351
348
343
339
336
335
337
340
343
344
345
344
344
343
342
343
344
343
342
338
335
330
326
322
318
316
319
327
337
347
354
361
363
363
361
358
352
344
336
329
325
323
322
325
328
331
337
344
352
360
364
361
352
342
335
333
336
339
340
340
338
338
339
343
347
350
351
351
352
354
350
343
336
327
321
317
313
311
313
323
335
351
363
369
370
369
365
358
352
350
350
352
354
353
352
350
348
348
348
348
346
340
334
330
333
337
346
353
356
356
347
338
327
317
308
306
312
327
346
363
374
380
383
383
381
378
379
378
379
380
379
379
377
374
371
369
366
364
360
355
351
346
341
337
333
331
332
337
340
351
369
387
399
402
396
380
358
333
312
300
297
304
318
337
356
370
379
382
378
374
367
358
351
345
340
336
333
334
337
342
347
353
355
350
339
326
319
319
321
324
325
326
326
326
332
342
356
376
399
422
446
470
493
512
517
508
490
464
427
376
311
241
209
159
134
133
152
180
210
235
252
267
282
301
320
338
353
363
370
376
380
382
381
379
375
372
369
366
363
365
370
375
377
371
360
347
334
328
328
334
344
355
364
371
372
373
370
367
368
368
370
373
377
380
381
383
385
386
389
390
389
382
374
368
365
366
367
373
380
387
392
396
400
402
405
405
398
385
370
357
349
348
353
366
383
401
417
424
435
439
438
437
435
433
431
430
430
430
430
432
433
435
436
438
439
440
441
441
441
440
439
438
436
434
435
435
436
437
437
434
431
427
423
419
413
410
408
406
404
401
400
397
394
389
383
377
369
360
355
354
358
363
367
371
374
375
373
368
361
352
342
338
331
327
328
332
334
336
338
340
344
349
351
351
348
344
337
331
322
319
317
318
319
323
329
336
345
356
363
368
369
366
360
353
346
341
338
337
337
335
332
328
325
321
321
322
324
326
330
334
339
346
353
359
362
361
356
347
335
324
317
317
323
333
345
351
363
370
374
375
372
369
362
354
347
340
336
335
337
341
346
350
349
349
348
349
349
347
345
341
336
331
328
325
324
327
333
341
349
354
354
348
342
335
330
325
321
322
324
329
335
342
347
351
352
352
352
352
354
355
355
353
351
347
344
341
338
338
340
342
344
345
345
344
339
334
330
329
326
323
320
321
324
328
335
343
352
359
362
362
360
355
350
346
344
344
344
343
344
345
348
349
351
352
353
351
348
344
341
340
339
339
338
338
336
334
335
339
343
347
352
351
349
346
344
344
345
345
347
348
346
343
339
338
337
339
344
348
352
355
354
353
350
348
345
343
338
333
329
327
333
340
349
358
361
366
370
372
372
369
366
362
358
355
352
350
348
347
346
346
347
346
347
345
344
344
345
345
346
349
352
354
353
350
346
343
342
344
346
350
353
357
361
363
362
361
359
360
360
363
367
371
374
375
374
370
365
359
354
352
352
354
357
356
352
347
341
338
336
337
340
343
346
347
348
347
345
344
341
342
343
343
342
343
343
346
347
349
349
347
346
345
345
348
350
352
355
353
353
352
352
353
353
355
358
365
378
396
419
445
473
486
511
527
530
522
504
477
438
381
309
232
171
136
128
140
165
197
231
261
282
298
304
315
324
331
338
345
350
354
357
355
354
353
354
357
359
359
357
357
358
359
361
364
365
368
369
369
368
368
369
370
372
375
374
373
372
369
369
369
370
370
370
370
370
371
371
371
371
372
373
375
375
376
377
379
379
382
383
382
381
382
381
381
383
386
387
389
391
393
393
393
395
398
400
400
400
401
402
404
406
408
410
412
414
416
417
418
420
422
425
426
427
430
430
430
431
431
432
432
432
433
434
432
430
429
427
426
423
422
419
417
417
414
413
412
408
405
401
396
392
388
385
384
382
378
373
369
364
361
360
357
354
352
352
348
345
342
340
339
339
339
339
336
334
334
333
335
336
335
334
334
336
335
336
337
338
338
338
338
335
333
331
331
333
334
335
336
337
335
335
334
333
334
334
335
335
335
334
333
334
335
336
336
336
336
335
335
335
336
338
339
341
341
340
340
341
342
344
346
347
347
346
345
345
347
347
349
349
348
345
344
345
346
348
349
349
347
345
343
342
342
343
344
346
346
344
343
341
341
342
342
343
344
345
344
344
344
343
342
342
341
341
340
341
342
343
344
344
344
343
342
340
339
339
339
340
341
342
344
343
342
341
341
338
339
340
340
340
340
341
342
343
344
345
344
343
343
343
342
342
342
342
343
342
343
342
341
342
342
343
343
341
340
338
337
337
337
339
340
342
341
340
339
338
337
337
337
338
339
339
339
340
341
343
344
344
342
339
335
336
337
338
340
342
344
344
344
343
344
346
348
351
353
354
354
354
354
353
353
354
356
354
355
355
353
353
353
354
355
354
354
353
352
350
348
347
347
346
343
341
339
339
341
342
345
346
346
347
346
345
344
343
343
343
342
342
342
341
342
341
343
344
345
344
343
342
342
343
346
347
348
347
346
344
344
343
348
361
380
403
427
453
479
498
513
516
509
500
478
447
400
336
264
199
155
138
143
163
191
224
254
278
297
312
324
334
340
345
347
352
356
360
361
362
363
361
361
361
360
360
360
361
362
363
365
365
366
365
365
365
366
367
368
370
372
372
373
371
368
365
363
360
358
360
362
364
367
369
371
369
370
369
369
370
370
372
372
373
375
376
377
378
379
380
381
383
384
387
390
394
396
399
398
398
397
397
399
403
405
410
411
412
413
413
414
417
420
423
423
423
422
420
421
421
423
426
428
428
429
430
432
434
436
436
436
433
432
429
428
427
427
428
427
425
422
419
414
409
405
402
399
397
393
389
383
377
372
371
366
363
359
357
351
348
345
343
342
341
339
338
338
338
338
337
336
336
334
332
331
330
331
333
335
337
339
340
341
341
340
340
340
341
341
340
340
339
336
331
326
321
318
318
319
321
324
328
331
334
336
336
336
335
334
333
334
337
340
343
344
345
345
344
344
344
345
346
348
346
345
344
344
345
346
347
348
348
347
345
344
343
341
342
341
342
342
342
343
344
343
342
341
341
340
340
340
340
343
344
346
346
346
345
345
347
349
350
351
351
350
347
344
343
342
342
342
343
343
343
343
341
341
341
342
344
343
341
339
337
337
338
340
342
343
345
343
341
339
339
339
341
343
344
345
346
346
346
346
347
347
347
345
344
344
344
346
347
348
348
347
344
342
338
338
337
338
342
344
345
344
345
346
348
350
350
350
349
348
348
348
347
347
347
347
346
347
348
350
351
352
353
353
352
351
350
348
348
348
348
348
349
348
349
349
350
352
357
359
360
359
357
353
351
350
353
359
362
363
363
364
364
364
364
364
368
371
369
367
365
364
361
359
358
357
356
355
354
353
353
352
352
352
351
349
346
344
342
343
345
347
349
349
348
346
346
344
345
347
349
350
351
351
352
352
352
352
353
351
351
351
349
346
346
347
349
352
354
355
353
352
353
358
370
388
401
427
454
481
504
519
521
512
493
466
427
367
294
223
170
142
140
157
183
217
250
279
292
313
330
342
349
352
354
356
359
362
363
363
363
363
363
363
364
365
367
368
368
366
364
364
365
367
370
372
372
372
370
369
369
370
371
371
372
372
372
373
374
375
375
378
379
380
380
379
378
379
379
381
383
384
386
388
388
391
393
394
395
394
393
392
390
391
391
394
395
397
399
400
401
402
404
406
408
410
412
413
412
413
414
415
418
420
424
427
429
431
432
434
436
436
436
436
435
434
432
431
430
431
432
432
432
432
432
432
433
433
430
426
422
418
414
410
407
407
403
400
396
393
389
383
378
374
371
368
367
364
360
357
354
353
351
350
349
347
344
340
340
340
342
343
344
341
336
335
335
335
336
338
338
336
335
333
331
331
333
335
335
335
335
333
331
330
330
329
330
330
331
331
331
331
333
335
337
339
339
337
335
335
335
335
337
339
341
342
341
341
341
342
343
344
344
344
344
344
343
342
341
341
342
343
343
342
341
341
342
344
346
348
349
348
348
347
346
344
343
342
342
342
342
342
344
344
344
344
344
341
341
340
340
340
341
343
344
345
345
343
342
342
342
344
346
346
346
345
343
341
341
343
342
342
341
340
340
340
341
342
343
343
344
343
342
342
341
342
343
343
342
342
340
339
340
341
343
344
345
345
345
344
343
342
343
344
346
348
348
347
347
346
346
346
347
345
345
345
344
345
346
346
347
347
347
346
344
344
344
346
348
349
350
350
348
347
346
346
348
350
350
349
348
347
345
346
348
350
352
352
351
349
347
348
349
351
352
353
352
351
349
349
348
349
349
349
347
346
346
346
348
350
352
352
353
352
352
351
351
352
354
352
351
350
349
348
350
353
357
360
361
361
362
363
364
365
365
365
365
365
365
364
364
364
364
366
364
362
359
355
352
351
351
352
352
351
349
348
344
344
345
346
345
346
345
344
344
344
344
345
347
348
349
348
346
345
345
345
346
345
345
343
343
342
343
344
344
342
342
343
346
354
368
388
414
442
470
496
516
525
521
506
484
452
404
339
266
200
175
144
139
155
180
212
243
270
290
308
323
335
343
350
354
358
357
359
360
361
362
361
360
359
357
356
357
359
362
364
365
365
365
363
363
364
366
368
368
367
368
366
367
366
368
368
370
372
373
373
373
373
374
374
374
374
375
375
376
379
380
382
385
387
387
388
388
388
389
391
390
391
392
393
394
395
396
398
399
400
402
403
403
404
405
405
407
409
411
414
415
417
418
419
422
425
428
430
431
432
431
430
430
431
433
435
437
438
440
440
440
438
438
437
434
432
429
427
426
426
425
423
420
415
410
404
400
397
395
393
389
385
382
377
373
371
367
364
361
358
354
350
347
344
343
343
343
342
340
340
339
338
339
339
339
338
337
335
334
333
333
335
335
334
334
334
333
332
332
332
332
334
335
336
335
334
332
330
331
332
332
332
332
333
334
335
336
337
339
339
339
340
340
340
341
341
341
341
342
342
342
342
340
340
341
342
341
340
340
340
341
343
344
345
345
345
343
342
341
341
342
343
345
347
347
347
345
345
345
346
348
346
346
345
345
344
343
344
343
343
343
342
342
341
342
343
343
341
340
339
339
339
340
342
345
345
345
345
343
342
340
340
340
339
339
338
338
340
339
340
340
341
341
341
341
340
340
340
341
342
343
343
343
343
343
343
343
344
344
344
343
343
344
344
346
347
348
346
346
345
344
345
346
347
348
347
346
344
343
341
341
342
345
344
346
345
344
342
342
343
344
344
345
345
345
345
346
348
349
349
349
348
347
347
345
344
345
347
346
348
346
346
346
346
347
349
350
350
351
349
347
346
346
348
350
351
350
348
347
346
347
349
349
350
349
347
346
345
346
348
351
353
355
356
356
354
352
352
352
351
353
356
357
358
358
359
362
364
365
364
363
365
364
365
366
367
367
368
364
361
359
358
357
358
357
356
354
352
350
348
347
346
345
346
347
348
347
348
347
346
346
346
347
347
347
346
346
347
348
349
349
348
347
346
345
346
348
349
350
349
348
346
345
349
360
377
401
429
443
471
497
517
527
526
511
489
456
408
341
266
198
152
134
139
162
191
224
255
280
290
309
324
335
343
347
350
353
356
360
362
362
363
361
361
362
363
365
366
367
366
367
364
363
363
365
367
370
371
372
372
372
371
372
373
375
375
375
375
374
374
377
378
380
380
380
379
378
376
376
379
380
382
384
385
386
386
387
388
390
391
391
391
390
389
392
392
394
397
401
402
402
402
403
405
407
410
412
415
415
414
415
416
419
422
424
426
428
430
429
429
430
430
431
433
435
436
437
436
435
435
435
435
435
433
432
429
428
425
423
422
420
420
417
414
411
409
404
401
398
393
388
383
378
375
372
371
369
368
365
363
358
356
353
351
349
347
344
343
342
342
341
340
339
339
336
336
335
335
334
335
336
337
336
336
335
333
332
331
332
334
334
334
332
331
330
329
330
331
333
334
334
336
337
338
339
340
341
341
340
339
338
338
337
339
340
343
345
345
344
343
343
343
345
346
347
348
348
347
346
345
346
347
348
348
348
348
347
347
347
348
347
348
348
347
346
346
345
345
345
345
344
344
345
343
343
344
344
345
344
343
340
339
339
341
343
343
344
343
343
343
342
344
345
346
346
346
346
346
344
344
343
342
342
342
340
340
340
340
342
343
343
342
341
341
338
339
340
340
340
339
339
339
340
341
343
344
345
345
345
344
345
342
341
341
342
343
344
344
345
344
344
344
347
347
346
344
341
339
338
339
341
343
345
345
345
344
343
343
343
343
344
345
345
345
345
345
346
347
348
349
348
347
345
345
344
345
347
347
347
346
345
345
344
345
345
346
347
347
347
348
348
350
353
354
354
352
351
350
351
352
354
355
356
356
357
356
356
357
360
360
362
362
363
364
365
364
363
364
363
360
358
356
354
354
353
353
352
351
350
348
346
343
343
343
344
346
347
347
346
344
342
342
343
344
345
345
342
342
341
342
342
345
345
345
345
344
344
344
343
343
344
345
348
350
356
368
386
409
434
460
486
505
517
517
507
487
474
441
390
322
249
186
148
137
147
171
202
233
261
283
301
315
328
338
345
351
355
357
360
362
362
361
360
359
359
358
358
359
360
363
363
362
361
361
361
362
364
365
367
368
369
368
366
364
364
365
368
370
373
373
374
374
375
374
377
378
379
376
376
376
377
377
378
380
381
381
381
380
380
381
383
384
386
387
387
388
388
389
390
392
394
395
397
397
397
399
399
403
407
411
413
415
415
417
418
420
423
425
426
426
427
428
428
430
431
432
432
433
432
431
429
429
429
429
429
426
424
422
419
418
419
419
420
417
416
411
406
400
396
392
388
384
380
376
371
367
364
362
360
358
354
351
348
344
343
344
342
342
341
340
338
336
333
332
333
335
336
338
338
337
335
333
332
332
331
330
330
329
328
328
330
331
331
331
331
331
329
329
329
329
332
331
332
333
334
334
335
336
336
336
336
336
337
338
339
342
344
346
346
346
344
342
340
340
341
342
344
345
344
344
343
342
343
344
345
345
345
343
342
341
343
345
346
346
345
343
342
341
342
343
342
343
343
342
340
339
339
341
342
342
343
342
341
341
341
342
344
344
345
344
343
341
340
340
342
342
342
343
341
340
339
339
340
341
342
341
341
341
340
340
340
341
340
340
339
339
338
337
337
337
339
339
341
341
342
342
342
343
343
344
344
342
341
341
341
340
344
345
346
346
345
343
344
344
344
344
343
343
342
341
341
342
343
344
345
344
345
343
342
343
343
344
344
344
345
343
343
344
345
345
347
348
347
345
343
343
345
345
347
347
347
346
344
343
344
345
347
347
347
347
345
345
346
349
349
350
349
348
347
348
347
348
350
351
352
352
352
352
352
353
353
353
352
352
351
350
351
352
355
356
357
358
360
361
362
362
362
362
362
363
364
363
362
361
361
359
360
361
359
358
357
356
355
354
351
349
346
345
344
344
344
345
345
346
346
346
346
345
345
346
346
346
347
347
345
344
344
344
345
346
347
348
347
347
345
344
343
343
345
347
352
363
381
404
417
444
472
499
518
525
519
503
480
448
400
335
262
196
153
137
142
162
194
229
259
273
295
313
327
338
346
352
356
358
359
358
356
355
355
356
358
359
359
359
358
360
359
359
361
362
363
364
364
364
364
366
367
368
369
370
371
371
371
371
373
375
377
376
376
375
374
373
373
375
377
378
378
378
379
380
380
384
386
388
389
389
389
388
388
389
390
392
393
394
394
396
397
401
404
407
408
408
408
408
410
414
415
418
420
421
421
421
421
426
427
430
432
433
433
432
433
435
436
439
439
439
437
435
432
430
430
430
433
432
433
432
431
427
425
422
418
414
410
405
400
395
392
389
388
384
380
375
370
367
362
358
356
354
354
352
351
348
345
343
341
341
340
340
338
335
334
335
336
338
338
338
336
335
332
332
332
332
333
334
333
332
330
330
330
333
333
334
335
333
332
332
332
332
333
334
336
337
338
337
338
339
340
342
342
342
341
341
341
340
341
342
343
344
344
344
344
344
345
345
346
346
345
345
345
346
346
346
346
345
345
345
345
345
345
346
347
347
347
347
345
344
345
344
344
344
344
343
342
341
341
342
342
343
344
344
344
344
344
344
345
345
345
345
346
344
344
345
345
345
345
345
345
344
343
342
342
342
343
343
343
342
342
341
342
343
344
344
343
342
341
339
339
340
342
344
345
344
344
343
343
344
344
344
344
344
342
342
343
344
345
347
348
349
349
348
346
344
343
343
344
343
344
343
343
344
345
347
348
348
348
346
346
346
346
348
349
350
350
349
349
349
348
346
347
346
346
346
346
346
346
346
347
349
350
350
348
347
347
347
347
349
349
349
348
348
348
348
349
349
349
349
347
347
347
348
349
349
350
350
350
349
348
348
348
349
353
356
358
358
356
354
353
352
352
353
355
356
357
356
355
356
359
362
365
366
366
364
365
365
365
367
368
368
366
364
361
360
359
359
359
359
357
355
353
350
350
350
350
351
351
351
349
348
348
348
348
349
348
347
345
344
343
344
346
348
349
349
348
348
349
350
349
349
351
350
349
347
347
349
350
355
364
380
401
426
454
481
506
516
528
527
514
492
461
413
348
274
207
159
137
139
158
186
219
252
279
301
319
331
336
344
347
351
354
358
361
362
361
360
358
358
359
361
362
363
363
362
362
363
363
364
364
364
365
363
364
364
367
369
372
373
373
372
371
370
371
372
375
374
375
374
375
374
374
375
376
378
380
380
382
382
382
382
383
384
386
388
389
389
390
392
394
396
397
398
399
401
400
401
402
404
406
407
408
408
409
410
412
414
417
419
420
423
425
428
429
431
434
435
436
436
436
436
436
436
438
438
437
435
433
432
430
430
431
429
427
426
424
421
418
415
413
410
407
403
401
396
391
387
383
377
373
370
366
362
359
357
356
354
353
352
350
348
344
342
343
344
343
342
340
337
334
332
331
332
333
335
336
336
335
334
333
332
331
330
331
331
331
331
331
331
332
332
332
331
330
328
328
329
330
331
332
333
335
334
334
334
335
337
339
337
337
336
337
339
341
341
342
343
342
342
342
342
343
344
345
345
345
345
342
342
343
342
343
344
344
343
343
343
343
344
344
345
345
344
343
342
340
339
339
340
342
342
343
342
341
340
340
339
340
341
343
342
342
342
343
343
344
344
345
343
344
342
342
342
343
344
343
343
342
341
341
339
340
341
341
341
340
338
337
336
336
336
336
338
337
336
336
337
337
339
341
342
343
342
342
342
341
342
342
343
342
342
343
343
343
343
344
345
344
344
343
342
341
342
343
343
343
343
343
344
341
341
342
343
345
344
344
344
345
346
347
350
352
352
351
349
348
347
347
347
346
346
346
346
347
349
349
350
350
350
348
346
345
345
346
348
350
351
351
350
348
347
347
347
349
349
347
347
346
347
348
350
350
351
351
350
349
348
348
347
348
349
350
351
353
353
354
352
351
351
352
352
353
353
353
355
358
359
361
362
363
364
364
365
364
365
365
365
366
365
365
365
364
363
361
360
358
356
353
352
349
349
350
351
351
350
350
349
348
350
349
349
347
347
346
344
344
345
346
348
349
351
350
349
348
348
348
348
350
350
349
348
348
348
347
347
349
350
353
362
375
394
418
445
474
501
512
529
532
521
501
474
434
375
302
227
170
138
134
148
175
210
243
272
294
311
324
335
339
346
351
356
358
360
359
356
356
358
358
360
361
363
364
365
365
366
366
368
366
366
365
365
366
366
368
370
371
370
370
370
370
370
373
373
374
374
373
371
371
373
374
377
379
381
381
381
380
380
380
382
384
386
386
386
385
386
387
390
391
393
395
398
397
398
399
402
404
406
407
408
407
410
411
414
415
416
418
419
420
421
421
425
429
431
434
435
436
434
433
433
433
434
436
437
438
438
436
434
434
432
430
428
426
425
424
421
419
418
417
417
414
411
406
401
397
393
388
384
380
376
372
369
365
362
361
359
357
355
351
350
348
346
345
344
343
342
341
340
340
340
340
340
339
338
335
333
333
333
333
335
336
337
337
336
335
335
335
336
336
335
336
333
331
331
333
333
336
337
338
338
339
339
340
341
342
343
344
343
341
340
341
343
344
345
346
347
347
346
346
346
346
347
348
348
347
348
349
350
348
346
345
346
347
347
349
351
351
351
351
351
351
350
348
346
345
345
346
347
348
346
345
342
341
343
345
346
347
347
345
344
344
343
343
345
345
345
344
343
341
341
341
343
345
347
347
345
344
343
343
343
342
342
341
341
341
340
340
340
341
342
341
340
339
339
340
341
343
345
344
343
342
341
340
341
343
344
344
344
343
342
342
342
343
344
346
344
342
341
341
341
341
341
342
341
340
340
340
338
339
341
341
341
341
342
344
345
346
346
346
345
344
343
343
343
344
345
347
348
348
349
349
348
347
347
348
349
348
348
347
348
347
347
347
348
348
348
348
348
348
348
348
350
351
352
352
353
353
353
353
353
355
354
355
356
355
357
359
361
363
364
364
363
362
361
362
364
366
364
362
361
358
357
356
356
357
358
357
354
351
346
345
345
345
346
346
346
345
344
343
343
344
345
346
346
345
344
343
342
341
341
343
344
344
344
343
342
344
346
349
350
348
346
343
342
343
348
358
374
396
420
445
472
497
515
521
524
514
495
467
424
364
292
221
165
138
136
152
179
212
244
271
291
308
320
330
336
341
348
355
360
362
363
362
362
360
358
357
358
358
359
362
364
365
366
367
367
368
368
368
367
365
364
365
367
369
371
372
373
372
371
370
370
372
372
374
375
375
375
375
376
376
376
377
378
380
382
382
382
383
384
384
385
386
386
385
386
388
389
393
395
396
397
398
398
400
403
406
409
411
412
412
413
414
417
417
420
422
424
425
427
428
429
431
433
433
434
433
433
434
433
433
433
433
431
429
428
427
426
426
424
422
422
421
418
415
411
410
406
402
398
393
389
385
380
377
373
368
365
362
358
355
353
351
350
349
349
348
346
343
340
338
337
337
337
337
337
338
337
335
335
332
331
331
330
330
329
329
328
328
328
329
329
329
330
327
327
327
327
328
329
330
330
329
329
329
330
331
333
336
336
336
336
336
337
339
341
341
342
343
343
343
342
342
341
340
339
339
338
339
339
341
342
343
344
344
343
343
343
343
343
342
342
341
341
340
341
341
344
344
344
345
345
343
342
341
340
341
341
341
340
338
338
338
341
341
342
343
342
341
339
338
338
338
339
341
341
341
341
340
340
339
339
339
339
339
338
337
337
338
338
338
336
335
334
334
333
334
336
339
341
341
340
338
336
336
337
336
338
339
340
341
343
342
342
342
343
342
342
341
340
339
340
341
343
342
343
341
340
339
338
339
339
338
337
338
337
339
339
340
341
344
343
343
343
342
342
343
343
344
346
347
347
348
346
345
346
346
347
347
348
348
347
346
345
345
346
346
346
346
346
344
344
344
345
345
345
344
344
344
345
348
350
351
351
351
351
350
349
349
350
350
353
355
356
356
355
355
353
354
352
353
354
357
357
359
361
365
366
368
369
368
365
362
363
365
367
368
368
367
364
364
360
358
357
357
358
358
357
355
353
351
349
348
346
343
343
343
344
346
348
349
350
350
349
345
344
343
343
342
344
344
344
342
342
341
343
344
344
345
347
347
347
347
347
348
350
353
362
376
397
423
450
481
505
523
529
523
504
479
443
390
322
247
185
162
136
135
153
181
214
247
275
298
316
329
338
346
352
356
360
362
361
360
359
359
359
359
361
363
364
363
363
362
362
364
366
367
367
367
367
367
369
370
372
374
373
372
370
368
368
369
372
374
375
377
375
374
373
374
373
374
375
377
379
381
384
386
389
390
395
396
397
397
394
393
393
394
396
397
398
399
399
399
400
401
402
404
406
408
409
410
411
412
414
417
420
423
423
424
426
427
431
435
439
441
442
442
441
442
442
443
443
446
445
445
444
441
439
437
436
434
432
430
427
426
422
418
415
412
406
402
398
397
393
388
384
380
377
372
367
364
361
358
357
354
352
350
348
346
346
346
348
349
349
349
348
347
344
341
340
339
339
337
336
335
336
334
334
334
335
335
335
334
333
333
332
332
332
334
334
334
333
332
331
331
332
334
336
337
337
338
338
340
343
345
346
345
345
344
344
344
345
347
347
347
346
346
346
347
347
347
348
347
345
343
342
343
344
348
351
352
352
352
352
352
352
352
352
350
349
349
348
346
346
346
347
347
347
346
345
343
343
343
344
345
344
343
341
340
340
341
342
344
344
344
342
342
342
342
343
343
344
345
346
347
347
347
346
347
347
347
348
348
347
347
346
346
346
345
344
342
341
340
339
339
341
341
341
340
338
338
338
339
340
341
341
340
339
338
338
339
341
342
343
343
343
341
340
339
339
341
341
342
343
343
343
344
346
349
351
351
352
351
349
349
348
347
345
347
346
346
345
344
342
342
342
341
341
341
340
342
343
343
342
341
340
338
338
337
337
336
338
340
342
344
345
346
346
346
347
348
350
351
354
353
352
352
352
352
351
353
353
352
352
352
352
354
354
354
353
352
353
353
354
355
356
358
359
360
360
361
361
361
360
360
361
362
361
360
360
360
358
360
358
355
352
352
353
353
353
353
352
351
351
350
348
347
348
347
348
348
348
348
347
345
346
346
348
349
351
348
347
346
345
344
344
345
348
349
349
349
349
349
348
347
346
346
348
356
374
397
426
441
470
499
520
530
525
509
485
453
406
340
264
194
146
125
129
149
180
214
245
272
285
309
327
343
353
359
363
362
361
360
359
359
360
360
361
361
362
362
363
364
365
366
367
365
365
364
365
366
367
368
368
368
369
367
367
367
367
369
371
372
372
372
372
372
372
374
376
379
378
377
377
378
378
381
385
389
394
396
397
398
395
394
392
393
393
393
394
396
397
399
401
401
403
404
405
406
409
409
411
413
415
416
418
419
419
421
423
425
428
431
433
434
433
433
433
434
436
438
439
438
436
435
434
434
435
437
437
436
433
431
428
425
422
419
415
411
408
405
402
399
396
392
388
384
379
374
368
365
363
360
356
353
350
348
346
343
341
339
338
337
334
332
332
332
332
332
333
336
337
337
336
335
335
336
338
337
338
337
334
332
330
330
331
333
334
334
333
332
331
333
334
334
334
335
334
334
333
333
333
335
337
338
338
338
336
335
335
336
337
339
340
343
343
343
344
345
345
346
345
343
341
340
339
340
340
342
344
345
346
344
344
344
343
342
342
343
342
341
341
340
341
339
339
339
339
336
334
334
335
335
336
336
337
338
338
340
341
344
347
349
349
348
345
343
339
339
338
338
339
341
340
340
339
340
341
341
341
339
340
339
339
339
339
340
340
340
339
338
339
339
339
340
339
338
338
338
339
341
344
344
346
346
344
342
341
340
340
340
341
342
340
341
341
342
342
342
343
344
342
341
342
343
344
346
346
347
348
346
344
342
341
340
340
340
341
343
346
348
350
351
350
351
351
350
349
348
347
347
347
346
346
345
346
347
345
345
345
345
348
347
348
348
347
345
344
344
343
343
343
343
343
345
346
347
349
350
351
349
351
352
353
352
353
353
354
355
354
353
353
355
355
356
356
356
355
356
357
357
360
363
365
367
366
364
363
362
363
364
366
367
366
365
364
361
360
359
358
356
354
352
350
349
347
346
347
347
346
346
347
347
346
346
348
348
349
350
350
349
349
346
345
345
347
346
345
345
344
345
346
347
349
350
350
349
347
348
349
353
361
374
393
416
441
468
495
517
530
530
527
509
482
442
384
312
236
174
138
127
136
160
191
225
257
282
303
320
333
342
349
352
357
360
362
362
362
361
360
359
359
360
360
361
361
362
363
363
361
361
363
362
364
365
365
367
369
372
373
375
372
369
368
368
369
372
375
377
377
377
378
378
378
380
381
382
383
385
387
388
388
388
388
389
389
390
391
391
390
391
392
394
396
399
401
402
402
401
401
402
404
406
408
410
412
415
418
421
423
424
426
426
426
425
424
425
427
428
431
431
432
433
434
435
437
438
437
436
435
433
431
430
428
427
425
426
424
423
421
419
417
413
413
410
405
400
393
386
381
377
373
371
367
363
358
356
354
353
353
352
350
347
344
341
339
338
339
340
341
341
341
340
338
338
335
333
330
327
325
324
323
322
322
322
323
324
326
328
330
332
333
335
335
336
338
339
340
339
340
340
340
340
339
339
338
336
337
339
340
343
344
345
344
342
340
340
341
342
343
344
344
341
342
342
343
344
343
341
340
339
339
341
344
345
346
345
345
343
342
343
345
347
350
350
350
349
347
347
347
347
347
347
345
343
342
341
341
340
341
341
341
341
340
341
341
343
342
341
340
339
338
338
338
340
338
340
340
339
338
337
338
339
340
342
343
343
340
340
338
336
336
337
338
338
338
340
342
344
346
347
347
346
345
342
340
340
340
341
344
345
347
347
347
346
345
345
345
345
345
344
343
343
343
343
344
344
344
344
343
342
342
343
343
344
343
342
341
341
342
344
344
347
349
351
351
351
348
346
346
347
348
349
349
349
349
350
352
351
350
349
348
346
345
344
345
345
347
350
353
353
353
352
351
352
353
356
358
358
356
355
355
355
358
362
366
367
366
363
361
360
359
360
360
360
359
358
355
354
353
353
353
352
351
348
345
343
341
344
346
349
350
350
348
346
345
344
343
343
344
345
347
347
347
345
345
346
346
345
344
342
342
339
339
339
340
337
336
335
336
340
349
365
387
413
437
462
486
507
521
526
520
504
479
440
382
308
233
173
153
134
138
159
191
225
257
282
303
318
331
339
346
351
354
357
359
361
362
361
359
359
358
358
359
359
360
359
358
357
356
354
353
355
356
358
359
362
365
367
369
371
373
375
373
372
371
369
369
369
371
375
377
377
378
378
379
379
380
381
382
383
382
381
381
381
382
385
385
386
387
389
389
390
391
392
395
397
397
397
395
395
396
399
403
405
409
412
414
416
416
417
418
420
420
421
423
424
427
430
433
436
438
440
442
440
438
437
437
435
435
434
433
432
429
428
427
426
425
422
419
415
410
406
401
397
394
390
389
385
379
374
368
365
359
356
353
352
349
348
347
345
344
344
343
343
343
342
340
340
340
338
337
335
334
333
332
331
331
332
334
335
335
332
330
328
327
327
327
328
328
328
327
326
327
329
331
332
334
333
331
330
329
328
329
330
331
330
330
332
334
337
339
342
343
343
342
341
340
340
340
341
344
346
345
344
342
342
342
343
343
343
343
343
343
344
345
347
348
347
345
342
340
340
341
344
346
347
347
346
345
343
343
343
343
344
344
343
342
341
340
338
338
340
341
342
343
342
341
341
342
343
345
343
342
340
339
338
338
339
339
340
341
341
341
341
341
341
341
342
341
340
338
337
337
339
341
340
340
340
341
342
341
342
344
343
342
342
342
342
343
344
344
344
344
343
343
343
343
343
344
345
345
345
345
344
344
343
345
346
347
347
348
347
347
346
345
345
346
344
345
344
342
341
341
342
344
347
348
349
350
349
350
351
352
354
352
350
349
348
348
347
348
348
348
349
349
347
344
345
346
347
348
348
348
347
347
347
347
348
348
348
347
347
347
348
349
350
352
353
353
352
351
348
347
349
354
358
360
362
363
364
365
365
365
366
367
367
367
365
364
363
363
361
360
355
350
345
343
343
347
352
356
360
362
362
362
361
359
358
357
357
355
354
350
350
350
350
349
349
347
346
345
345
346
346
348
348
349
349
349
349
348
348
350
351
351
350
349
345
344
345
348
358
375
399
426
453
467
493
514
526
524
510
488
459
414
352
280
211
162
137
137
154
182
215
248
278
301
311
329
341
349
354
358
362
365
366
364
363
360
358
359
361
363
366
367
370
368
370
371
372
373
374
375
375
375
375
375
376
377
378
378
377
376
373
372
372
374
374
375
375
375
374
374
374
375
378
380
383
386
387
388
390
391
391
391
390
390
388
389
391
392
392
393
396
396
398
399
400
402
404
407
410
411
414
414
415
416
418
420
421
423
425
426
426
427
428
431
434
437
439
440
439
438
436
435
435
436
437
437
434
432
430
431
433
435
437
437
435
430
426
422
419
415
412
407
402
396
391
387
383
380
376
373
369
365
363
360
357
354
353
351
348
343
338
336
336
335
335
334
334
332
331
331
331
332
332
333
335
333
332
329
329
331
331
333
335
334
332
330
327
327
328
331
334
337
339
339
337
337
336
335
334
334
333
333
332
332
332
332
333
333
332
330
330
330
331
333
336
337
339
339
339
339
339
339
339
341
342
342
342
340
339
339
339
340
342
342
341
339
338
339
339
340
342
343
343
343
344
345
344
344
343
342
342
340
339
338
339
341
342
342
341
340
339
338
338
339
340
341
342
342
341
340
339
339
340
339
338
336
333
331
330
331
332
334
337
339
340
339
339
339
339
341
342
343
343
341
339
337
337
337
339
338
337
336
336
336
335
337
338
339
338
338
337
339
339
339
340
340
339
339
338
337
335
335
336
337
335
337
339
340
341
341
341
343
343
343
343
342
340
339
339
340
340
340
340
339
339
339
342
342
344
346
346
346
345
345
343
344
344
345
347
348
348
348
348
348
348
348
347
347
345
345
344
345
346
348
348
348
348
347
346
346
346
349
348
349
349
347
346
346
346
348
349
349
350
349
350
352
354
357
359
361
361
361
361
362
364
366
366
369
368
368
368
369
370
367
365
362
358
356
354
352
353
356
358
358
357
354
351
347
344
342
342
343
344
344
344
343
342
343
345
346
346
345
344
342
339
339
340
343
346
347
348
349
349
349
347
346
345
344
343
344
344
348
360
377
401
429
457
486
510
526
528
517
508
485
454
407
343
267
198
151
130
133
153
182
216
246
273
299
320
338
349
356
359
362
362
364
365
365
364
363
361
359
359
359
359
360
362
363
364
365
366
366
367
367
367
368
369
370
372
372
374
375
375
374
375
376
375
377
380
382
384
384
384
383
383
381
381
380
383
384
388
389
388
388
387
386
386
387
388
389
391
392
394
395
397
399
402
404
406
408
411
413
416
418
418
420
420
420
419
421
423
425
427
429
431
432
431
431
432
434
436
440
442
443
442
442
439
437
435
433
432
432
429
430
430
431
431
431
429
426
424
418
411
406
403
399
395
392
388
386
382
379
375
372
369
366
363
360
357
354
352
352
350
350
348
346
343
341
339
337
336
336
334
334
332
331
331
333
334
337
339
341
341
340
337
336
332
330
329
329
329
328
327
325
324
324
325
328
329
333
336
339
341
343
342
343
343
341
338
336
337
339
342
344
348
348
347
345
343
342
342
343
345
343
342
342
341
339
340
342
343
344
345
345
343
341
342
342
344
344
345
345
345
346
346
345
346
346
346
346
344
345
342
341
341
341
342
343
343
343
343
343
342
344
343
345
345
345
345
345
345
345
346
347
347
347
345
343
343
344
345
346
345
343
341
341
341
341
343
340
341
341
341
339
340
341
342
343
342
341
341
341
342
343
345
346
346
346
346
347
349
349
350
351
349
348
347
348
346
346
347
348
348
347
346
344
343
343
345
347
347
347
347
346
345
347
346
348
348
348
345
343
341
340
342
343
348
351
353
353
352
349
347
346
346
347
347
347
347
346
346
346
347
348
349
348
349
348
348
349
350
350
348
348
347
347
347
347
347
348
350
351
351
352
351
350
350
349
350
351
351
351
351
350
350
351
351
354
357
359
359
359
359
358
359
360
360
360
359
358
360
363
367
371
372
372
371
370
370
370
368
367
365
364
363
361
359
359
358
357
357
356
354
351
348
344
341
339
340
342
345
348
350
352
350
348
348
348
349
351
350
349
348
348
347
347
347
347
346
347
347
346
350
350
349
347
344
343
341
344
353
370
394
421
450
479
506
526
536
533
519
496
481
435
372
295
218
158
128
125
143
171
205
238
267
289
307
322
332
339
345
350
354
355
357
358
359
359
359
360
359
360
361
363
366
368
369
369
369
369
370
371
372
373
372
373
372
371
371
372
374
376
377
376
375
375
374
377
377
379
380
380
379
379
379
379
380
382
384
386
387
388
388
388
385
384
383
383
385
388
390
393
398
404
408
411
411
410
409
410
413
414
417
419
421
421
420
421
421
422
424
428
429
431
432
432
434
436
438
440
440
439
437
435
433
432
433
434
433
431
430
428
426
424
422
422
424
423
419
415
413
409
405
402
400
397
393
389
385
381
378
375
372
368
364
361
358
357
356
354
352
351
349
347
345
345
344
344
345
345
344
342
340
338
336
335
336
337
337
337
334
332
330
329
329
330
332
333
334
333
332
331
331
331
330
332
334
335
336
339
341
342
343
343
343
341
341
341
341
342
344
346
346
345
345
343
342
342
344
344
345
345
345
344
345
344
344
345
345
343
340
338
338
339
342
345
347
347
348
347
345
342
341
341
341
341
341
343
341
343
342
343
343
343
342
342
340
339
341
342
342
344
344
344
344
344
345
346
347
347
347
347
347
345
344
345
346
348
348
348
347
345
341
339
339
338
338
337
338
337
337
337
338
338
337
336
334
333
332
332
333
337
341
344
346
346
345
345
344
344
343
342
340
340
338
340
341
343
346
348
348
348
346
345
343
344
343
346
348
348
347
347
345
343
342
341
342
342
344
343
344
345
346
348
348
347
344
343
342
343
346
348
350
350
350
349
346
343
342
342
343
345
346
346
344
343
343
344
348
352
358
359
360
359
359
360
358
357
357
357
355
356
357
359
362
364
366
366
363
362
361
361
361
361
360
359
358
356
355
353
352
353
354
353
353
349
345
343
343
343
345
346
346
345
345
343
343
341
342
343
342
342
341
341
341
343
344
345
345
346
344
343
343
343
342
342
342
342
342
342
342
342
345
354
371
393
417
445
473
499
519
527
523
508
486
449
396
326
248
181
156
128
128
145
175
209
242
269
292
310
324
333
340
346
351
355
359
361
361
359
358
357
355
353
355
356
358
360
361
361
360
359
359
361
362
363
364
365
366
366
366
366
367
368
370
371
371
373
373
375
375
377
377
376
375
374
374
375
377
379
379
379
379
380
380
381
382
383
385
386
387
388
389
390
391
393
397
397
399
400
400
402
403
405
407
408
409
410
412
410
412
414
417
421
425
428
429
430
430
431
433
434
434
433
432
430
431
431
432
434
435
434
434
433
432
430
429
428
426
423
420
415
410
407
402
400
397
394
392
388
383
376
373
370
368
365
361
356
352
348
346
345
343
342
341
339
336
334
332
332
333
335
336
337
336
333
332
331
331
331
330
330
329
329
329
331
331
332
333
334
333
333
333
333
333
333
333
332
332
330
328
328
326
327
328
331
332
332
332
334
336
338
339
341
343
344
345
344
344
343
342
340
341
340
339
340
340
340
342
341
342
343
343
342
343
342
343
343
343
344
344
342
341
340
340
339
339
340
339
339
338
337
337
336
336
336
337
338
338
340
341
342
343
344
344
345
344
344
343
344
344
344
342
341
338
335
334
334
336
338
339
339
337
336
337
337
337
337
337
337
336
336
335
335
336
336
338
338
339
338
338
336
335
336
339
342
344
345
344
343
343
340
340
341
341
341
341
342
342
343
344
345
345
347
346
346
344
344
343
344
342
341
341
342
343
345
344
344
345
346
345
344
343
343
343
343
343
342
341
341
341
343
344
346
347
348
348
347
345
342
342
342
343
344
345
347
348
350
352
354
355
356
357
355
352
349
348
346
348
349
349
348
348
346
344
345
344
345
347
349
349
349
347
347
347
349
350
351
351
350
350
350
349
351
352
355
356
357
358
360
363
366
369
371
370
370
368
367
367
364
362
361
359
357
357
357
357
359
358
357
355
352
349
346
344
343
342
343
346
346
346
346
346
346
346
347
347
345
344
343
343
343
344
345
345
346
345
346
347
347
347
347
348
348
347
346
346
349
349
358
372
395
422
449
477
503
523
531
527
512
487
457
409
341
264
195
149
130
137
147
175
207
241
268
291
311
326
337
346
353
357
360
362
362
362
363
362
360
360
358
358
359
362
364
365
365
364
366
368
371
374
375
377
378
378
378
378
378
378
378
378
377
377
377
377
380
380
380
382
383
383
382
380
381
381
383
382
385
388
389
389
389
389
389
390
390
391
392
393
394
397
399
403
403
404
404
405
406
407
408
410
412
414
416
417
419
421
423
426
429
432
435
438
439
441
443
444
445
444
444
441
440
440
440
441
442
443
443
439
438
434
433
431
429
428
428
424
421
417
412
408
405
403
401
397
393
388
386
381
377
373
370
368
365
364
361
359
356
354
353
351
348
345
342
339
339
339
340
339
339
336
334
332
331
330
331
331
331
331
330
330
330
332
334
335
336
337
337
335
334
333
332
332
333
333
334
332
332
331
331
333
335
339
340
340
339
338
339
339
341
343
345
347
346
344
342
340
339
340
342
343
345
346
346
347
346
346
346
347
347
347
347
347
347
348
348
348
347
344
343
344
345
345
345
344
342
340
339
339
339
340
341
341
341
341
339
337
337
337
338
339
341
340
341
343
345
347
349
350
349
348
345
344
345
346
346
348
346
345
341
339
338
338
340
342
343
345
344
345
344
344
344
345
346
346
345
344
340
338
338
338
340
343
345
345
345
345
344
344
344
344
345
344
342
339
338
339
341
342
345
346
346
346
343
345
343
343
344
344
345
344
344
344
345
347
348
348
347
344
343
342
341
342
344
346
346
346
346
346
348
351
354
357
355
352
350
348
346
346
347
347
348
348
348
345
344
343
344
346
347
349
352
355
357
358
358
359
359
357
356
355
353
353
354
354
356
354
352
349
346
345
346
348
350
352
352
351
352
352
354
355
357
359
360
361
362
363
364
364
366
368
368
369
369
369
367
366
364
363
364
364
365
365
364
365
366
366
366
365
362
359
354
351
348
348
348
348
349
350
352
353
354
354
354
354
352
351
350
347
346
348
350
350
351
351
350
349
348
347
347
347
348
348
349
348
347
347
348
349
351
354
359
368
385
408
434
463
492
518
535
538
528
509
481
442
384
310
233
199
149
126
129
151
182
217
250
277
301
319
334
346
353
357
360
361
360
360
358
357
357
357
357
358
360
359
359
359
361
361
363
364
365
366
366
367
366
368
369
370
373
372
372
374
375
376
376
376
376
375
375
375
376
376
379
381
383
384
386
388
388
389
390
391
392
393
392
390
389
389
389
392
394
395
396
397
398
401
401
405
408
409
410
411
413
413
415
417
420
422
424
425
427
429
433
435
438
440
441
442
442
442
444
443
444
445
446
446
444
442
442
442
442
441
439
437
434
431
429
427
425
424
421
417
413
407
403
400
395
390
384
381
376
373
370
367
366
365
362
359
354
349
344
341
339
338
339
339
338
339
338
337
336
335
335
334
332
331
328
327
329
328
328
328
329
330
330
331
331
331
331
331
332
331
330
329
329
328
328
329
331
333
334
335
336
337
336
336
336
336
336
336
336
336
338
341
343
344
341
342
341
342
342
343
343
342
340
338
336
335
333
335
337
338
341
344
345
345
345
344
343
343
343
342
343
344
345
343
342
341
340
340
341
341
342
342
342
342
342
341
342
343
343
343
342
341
340
339
338
339
340
342
343
346
348
349
346
344
341
338
337
337
337
338
338
337
336
336
335
337
336
339
339
339
339
337
337
338
338
340
342
342
341
339
337
336
336
338
341
343
343
343
342
343
343
344
344
345
344
344
342
340
340
340
341
340
340
339
338
337
336
337
339
341
342
341
341
341
341
341
342
342
342
341
340
339
339
339
339
339
340
341
343
345
345
345
344
343
344
345
346
346
347
348
349
350
351
351
352
352
352
351
351
350
350
351
351
351
353
352
351
351
351
349
349
349
349
348
348
347
348
348
348
349
348
348
348
349
351
353
354
354
354
354
354
354
356
359
362
365
367
370
373
376
376
377
375
373
372
371
368
366
364
363
362
361
362
360
358
354
350
348
346
345
345
345
346
347
348
348
350
351
352
352
351
348
348
346
345
345
346
347
347
348
347
347
348
349
349
351
353
352
352
351
348
347
347
348
351
356
364
379
401
427
456
485
510
528
534
527
511
488
452
398
327
251
183
141
127
130
146
175
209
242
269
290
307
321
331
338
346
351
355
359
361
361
362
363
363
364
364
364
363
363
363
364
365
365
366
368
370
370
371
371
373
374
376
375
376
377
377
378
380
382
384
386
385
385
383
382
381
381
382
382
382
383
384
386
388
390
390
390
388
388
386
386
388
391
394
397
399
400
400
401
401
403
404
405
406
406
406
407
409
413
415
419
422
425
426
428
429
431
434
436
438
440
440
440
441
440
441
441
441
438
437
436
433
432
432
433
433
435
433
431
429
428
426
424
423
420
416
411
406
402
399
395
393
392
389
385
381
377
373
370
367
366
362
358
353
348
343
342
342
343
343
342
342
341
341
339
337
335
334
333
333
333
333
334
336
339
341
341
340
340
338
335
334
333
334
334
334
333
332
332
332
333
334
335
336
336
337
337
336
336
336
337
339
341
342
344
345
345
347
347
345
346
346
344
343
342
341
342
343
345
347
348
347
348
349
350
351
350
350
348
346
346
346
347
348
349
348
348
347
346
345
343
343
343
342
341
341
341
342
342
340
339
338
337
336
336
337
339
340
340
339
338
337
336
336
339
343
347
351
352
350
349
345
343
342
341
339
339
339
338
338
339
340
342
345
346
346
346
344
342
342
343
344
345
346
346
345
343
342
341
341
340
339
340
338
337
336
337
338
339
341
342
342
342
342
342
342
342
342
341
341
339
338
338
340
343
344
345
346
345
345
345
345
344
343
342
341
341
341
343
345
349
351
354
354
352
351
349
348
349
349
348
347
346
344
343
343
345
346
348
349
350
349
349
349
350
351
349
348
348
348
350
351
353
355
356
358
359
361
361
362
362
360
360
360
360
360
360
358
356
356
357
357
358
357
355
353
351
349
348
347
346
345
343
342
341
340
339
337
337
338
339
340
340
339
339
339
340
340
341
340
339
338
339
342
343
345
346
345
344
344
344
346
348
351
357
369
388
411
437
466
480
506
525
531
525
507
482
447
396
328
251
185
143
128
135
160
192
227
258
282
300
314
321
330
338
344
350
352
354
356
358
360
362
363
364
365
364
363
362
361
362
363
365
366
369
371
371
371
370
370
370
370
370
371
372
373
374
374
375
377
378
379
375
373
372
372
372
374
376
380
384
386
388
388
389
388
388
387
386
385
384
384
386
389
391
393
395
395
395
396
398
399
400
402
404
406
408
410
413
414
416
418
420
422
424
427
429
430
431
434
436
438
438
437
435
436
435
436
436
436
436
436
434
434
430
428
426
425
424
423
423
423
421
417
413
408
404
401
398
395
391
387
384
381
378
374
371
369
365
361
359
355
351
347
343
340
339
336
335
335
334
333
331
329
328
328
329
332
332
332
332
331
330
329
328
329
331
334
335
334
333
333
332
332
331
329
328
327
327
328
329
329
329
331
331
332
333
333
334
334
335
336
336
334
332
330
329
330
333
336
339
341
342
341
340
339
337
336
338
337
337
337
338
337
338
339
341
344
347
349
349
347
346
345
345
344
344
343
343
343
342
341
341
341
340
339
338
337
335
333
333
334
336
337
337
338
337
335
334
334
335
336
337
339
341
341
340
341
342
342
342
342
340
341
341
341
342
343
342
338
334
332
331
332
335
336
338
340
342
340
340
340
341
341
340
339
339
337
336
336
336
338
339
340
339
337
335
334
335
338
340
342
344
344
343
342
342
344
345
347
347
346
343
341
339
340
340
342
343
343
342
342
342
342
342
343
344
345
344
344
342
341
342
341
342
342
343
343
345
346
348
348
349
349
349
346
345
345
346
347
347
348
350
349
350
349
349
347
346
346
347
348
347
346
347
346
347
347
348
348
348
348
348
349
349
349
349
348
347
347
347
351
353
355
360
362
362
361
362
363
365
366
368
366
363
363
363
363
364
364
364
363
362
359
357
355
353
352
351
350
349
346
344
344
344
345
345
345
345
344
345
345
345
343
343
343
342
341
339
337
337
337
338
341
344
346
346
345
344
341
340
339
339
342
344
351
364
384
408
435
465
494
517
532
532
521
501
473
430
368
331
254
187
144
128
136
160
194
230
261
286
306
323
335
343
349
354
357
359
359
358
358
357
357
358
357
357
357
356
354
355
357
359
360
361
362
365
367
370
372
373
373
373
371
370
369
369
371
374
376
377
377
377
377
376
375
375
376
377
378
377
378
378
379
380
381
385
386
388
389
389
389
391
393
395
396
397
398
397
397
398
398
400
400
402
403
406
409
413
417
421
422
424
426
429
429
431
434
437
440
442
442
442
442
443
444
444
444
445
445
444
442
439
437
436
436
437
436
433
431
426
423
422
421
419
416
414
411
409
406
402
399
396
392
389
385
381
375
369
364
359
355
353
350
348
345
342
339
337
336
334
334
333
334
336
337
339
339
339
338
338
337
336
335
335
335
333
332
331
330
330
331
332
333
334
334
334
333
332
332
332
333
332
330
329
330
328
328
329
332
336
339
340
342
342
341
340
340
340
338
337
337
337
338
340
342
344
345
346
346
344
341
340
340
341
342
343
343
343
342
342
343
343
344
344
344
344
342
341
341
341
340
341
340
340
337
335
334
334
338
342
346
349
351
351
351
349
347
346
344
342
340
337
336
338
343
344
347
349
350
348
344
341
340
341
341
341
340
338
337
337
337
339
341
343
342
341
340
338
336
336
335
335
336
337
338
338
337
337
336
336
337
339
340
342
344
347
349
350
350
350
348
346
344
343
342
343
344
345
346
345
343
341
341
341
342
343
344
343
342
341
341
341
342
344
346
347
346
344
342
341
340
339
339
337
339
340
342
346
349
350
351
353
352
350
349
349
349
351
353
355
355
355
355
355
355
357
359
361
361
361
361
361
362
363
366
369
370
368
366
365
365
363
362
360
357
355
351
350
348
347
349
351
353
353
353
351
350
350
349
349
348
346
345
344
344
343
342
343
345
343
343
343
342
342
342
343
344
346
348
350
349
348
345
343
341
340
338
337
338
341
351
370
396
428
457
471
497
519
530
527
515
494
464
417
352
275
201
145
118
119
140
172
208
241
268
291
312
320
334
343
350
356
359
360
363
364
365
366
365
364
362
359
358
357
357
356
359
362
363
366
368
370
372
374
375
375
374
373
370
371
373
375
378
378
379
378
379
379
379
380
380
380
382
382
385
386
389
392
394
394
394
394
394
392
392
391
390
389
388
388
390
392
395
399
403
406
409
411
412
411
412
415
418
422
426
429
431
429
430
431
431
433
435
437
438
440
440
440
439
439
440
440
439
438
436
434
433
433
435
436
437
436
434
434
432
431
429
428
425
421
415
409
404
400
397
394
389
383
375
368
363
360
361
363
363
363
361
359
356
354
352
348
347
345
344
343
343
343
343
342
341
339
337
334
334
334
334
334
333
334
334
333
331
329
328
328
327
326
324
326
326
326
327
328
329
330
331
331
333
334
335
337
337
339
342
341
340
338
337
338
340
343
344
343
342
341
340
341
342
342
341
341
341
340
339
338
341
342
345
346
346
342
341
339
339
340
341
343
344
345
345
345
345
347
350
352
353
352
351
350
348
347
345
344
343
345
343
342
340
336
334
334
335
338
341
344
347
350
351
353
351
348
345
343
342
342
342
342
342
342
342
341
339
340
342
342
343
343
342
339
337
336
337
338
339
340
340
340
339
338
338
339
340
341
342
341
340
338
336
335
335
337
339
340
341
342
340
340
341
342
343
344
343
342
341
341
340
339
339
339
341
342
344
345
346
348
350
352
354
354
355
356
357
358
358
359
361
362
362
360
360
358
356
356
355
354
352
349
347
347
348
350
352
353
352
352
350
348
348
347
346
345
344
342
341
341
341
343
344
347
346
346
345
344
343
343
342
342
339
339
338
337
337
338
338
339
339
339
337
336
334
337
346
361
381
405
430
456
482
503
518
521
520
508
486
452
399
329
247
177
132
115
123
146
179
216
249
276
296
311
321
330
334
341
348
354
356
357
357
355
354
354
355
356
358
360
361
362
363
363
364
364
364
364
365
365
365
366
367
370
372
374
375
373
371
369
370
371
372
375
376
378
379
381
381
381
381
379
382
381
382
383
385
384
385
387
388
389
391
392
393
395
397
398
399
398
398
399
399
400
401
402
402
402
404
406
409
414
420
425
429
431
432
432
432
432
433
433
436
437
438
440
441
441
438
436
435
435
437
438
437
437
435
431
429
428
425
424
422
420
419
417
413
408
403
396
390
385
380
376
374
373
373
372
371
369
366
362
357
352
350
347
345
343
341
339
337
334
333
333
332
333
332
330
328
328
328
327
328
328
328
328
326
327
328
329
328
328
327
325
325
326
329
331
334
334
334
334
333
334
334
335
334
335
336
338
339
341
343
344
344
341
341
341
341
341
341
341
340
339
341
341
343
343
344
344
345
345
345
345
344
343
342
342
341
342
343
343
343
342
343
343
343
343
343
343
344
345
346
345
345
344
343
343
342
342
339
338
336
336
337
339
341
342
343
344
344
344
344
346
348
349
348
345
343
340
339
338
338
340
341
340
339
338
338
338
339
341
341
341
340
338
338
337
337
339
340
340
341
342
342
342
342
342
339
335
332
329
328
329
334
340
345
350
352
352
351
350
347
346
345
346
346
347
347
347
348
352
354
356
357
357
358
358
359
361
362
362
362
360
358
356
354
354
353
353
353
352
351
351
349
348
348
347
345
344
341
339
339
339
340
341
342
344
343
341
338
337
337
337
339
339
340
340
340
340
339
339
338
338
338
338
337
337
337
336
337
340
343
352
364
385
410
438
468
483
507
523
523
513
493
464
420
357
281
207
153
125
123
140
171
207
241
269
289
305
311
321
330
340
349
356
359
359
359
357
359
360
360
359
359
358
357
356
356
357
359
360
361
362
363
365
363
362
362
362
362
364
365
368
369
369
369
371
370
371
371
371
370
370
369
370
370
371
373
375
376
379
382
383
385
386
386
386
385
385
385
387
388
390
391
393
394
393
396
397
399
401
402
403
403
400
401
404
408
412
418
421
424
426
426
426
427
429
431
433
433
435
434
434
435
436
437
439
439
438
436
434
432
431
428
426
424
423
420
417
414
412
411
410
408
405
401
395
389
382
376
370
364
359
355
351
348
346
347
347
344
342
339
336
334
334
334
334
335
335
335
332
332
331
331
331
332
333
333
333
333
332
332
331
332
332
332
333
330
327
326
326
326
328
328
330
331
332
333
334
333
333
333
333
333
332
330
330
331
332
334
336
336
335
334
333
334
335
336
336
337
337
337
337
339
339
341
342
343
343
343
343
343
343
345
345
346
344
343
342
343
343
345
346
346
346
345
342
341
340
339
338
338
335
334
335
337
339
341
342
343
342
340
339
339
340
339
340
341
342
343
342
342
342
343
343
343
343
341
341
342
342
343
344
344
342
341
339
338
337
338
339
342
345
348
348
348
347
346
343
344
344
346
344
343
342
342
340
340
340
341
341
342
342
342
343
344
344
344
345
343
343
341
340
340
341
342
343
344
344
344
345
344
345
345
344
343
342
341
340
341
344
346
348
350
353
353
353
352
351
351
351
353
354
355
354
355
354
356
358
362
362
362
360
358
357
357
359
362
363
362
362
360
358
356
356
356
356
355
354
351
349
346
345
344
345
345
346
345
345
341
340
340
341
342
343
343
344
344
345
346
348
349
349
348
346
346
346
345
346
347
348
348
347
346
346
345
348
358
376
400
428
458
488
515
532
538
527
506
475
432
372
298
224
166
145
125
131
154
184
219
252
278
303
321
332
341
346
350
351
354
356
358
359
360
360
360
360
359
360
361
362
361
361
360
359
359
360
359
361
362
361
361
361
363
365
365
367
367
368
368
367
367
368
370
371
372
373
374
371
370
371
373
373
377
377
380
381
384
385
387
390
390
390
390
389
390
392
394
396
399
400
398
398
398
399
400
405
408
412
416
418
419
420
420
422
422
424
425
425
422
420
419
420
423
430
436
442
446
448
448
447
447
446
444
443
442
439
438
436
434
432
430
427
423
418
414
409
405
400
396
394
391
387
385
380
376
373
370
368
364
360
357
353
350
349
348
347
345
342
338
335
333
335
336
336
336
335
333
332
331
331
331
331
332
333
333
334
333
334
332
334
335
336
336
334
333
329
330
330
331
332
333
333
333
334
334
335
334
333
333
333
333
332
333
331
333
333
334
335
335
334
333
332
334
336
339
338
339
337
334
333
335
337
341
344
345
345
344
344
343
342
343
344
345
345
344
344
344
343
343
343
342
341
340
342
343
345
347
348
348
347
346
345
345
345
345
345
345
343
342
342
343
343
345
345
345
345
345
344
344
342
341
342
343
344
344
344
342
341
340
340
341
340
341
340
338
337
338
340
340
339
337
336
336
337
338
340
341
342
343
343
342
342
343
343
344
345
347
347
348
348
346
345
345
345
343
344
344
344
345
345
346
346
345
344
344
344
343
343
343
342
341
339
338
338
338
339
342
343
342
341
340
340
340
340
340
340
341
343
345
347
349
350
350
351
352
353
351
350
349
348
347
346
346
347
348
347
347
346
345
346
347
349
350
350
350
350
349
347
347
346
346
348
350
352
354
354
355
356
356
356
354
353
352
354
356
360
363
364
366
366
365
363
362
362
362
362
363
364
364
362
361
360
361
360
359
358
356
353
351
350
349
348
349
350
350
350
347
346
347
348
350
352
352
351
349
347
346
348
348
348
348
347
349
350
350
351
352
353
354
354
352
350
350
350
351
354
362
376
397
422
450
465
496
519
533
533
521
499
471
429
369
296
224
169
139
134
149
178
211
244
274
299
320
328
340
348
354
355
357
359
360
362
361
362
364
366
366
366
365
365
364
364
364
365
364
367
367
367
367
367
368
369
372
373
373
372
370
369
368
368
369
370
372
373
373
372
371
370
370
372
374
377
380
382
383
385
386
387
389
391
394
394
394
395
397
398
399
400
402
404
402
403
404
406
409
412
414
417
416
417
419
421
422
425
429
430
429
428
427
428
428
431
435
439
443
446
447
448
449
448
448
447
445
442
440
438
436
436
438
438
438
435
431
427
423
420
416
413
411
407
402
396
391
387
385
382
379
375
371
367
363
360
356
353
350
350
348
345
346
343
342
340
339
339
337
336
335
335
334
335
335
335
334
332
330
328
327
328
329
331
332
333
333
332
331
331
331
332
331
331
331
332
330
332
333
334
335
335
336
335
335
335
336
337
339
339
339
338
336
335
336
336
338
340
340
340
339
339
339
339
341
343
343
343
342
340
340
340
342
346
346
346
346
345
344
343
343
344
345
346
346
347
346
346
345
346
345
344
344
343
343
344
345
346
347
347
347
347
346
346
347
348
349
348
346
344
342
343
344
345
349
349
349
347
345
343
344
346
347
347
346
344
342
341
341
342
344
344
344
343
342
341
341
342
344
346
346
345
342
339
338
338
339
342
342
344
343
342
341
339
339
339
338
341
343
344
344
345
346
348
349
349
349
348
348
346
346
346
347
349
350
350
349
348
348
347
348
347
347
347
344
342
341
341
343
343
344
344
345
345
347
348
348
350
350
350
349
349
348
350
352
353
354
354
354
354
351
350
350
350
350
349
349
348
348
349
350
350
350
351
350
349
348
348
349
350
351
351
352
352
353
353
352
351
352
354
356
356
356
355
354
354
356
357
360
363
365
362
363
363
364
365
366
366
366
364
363
361
362
362
361
360
358
356
353
352
352
352
353
354
354
352
350
347
344
343
344
347
349
351
350
349
347
347
346
347
349
350
351
351
349
350
351
351
352
353
352
349
347
347
348
351
357
370
389
413
439
467
494
518
533
537
534
517
492
455
402
333
258
194
155
140
146
168
198
231
260
284
303
318
330
339
343
350
355
359
363
367
366
364
361
359
359
358
359
361
363
364
363
364
365
366
368
368
368
368
368
368
369
371
374
376
376
376
376
376
378
378
379
379
380
379
378
377
379
378
379
381
382
382
383
383
384
385
387
390
391
392
392
391
390
390
392
395
397
400
401
402
403
403
404
403
405
408
408
410
410
411
412
414
416
419
422
424
425
428
428
430
432
434
436
436
435
434
434
434
435
436
439
441
443
443
443
441
438
436
432
428
424
422
418
416
413
410
408
404
401
397
392
386
382
377
373
370
366
361
357
353
351
350
349
350
350
349
348
345
343
342
341
343
341
341
340
340
338
339
339
339
339
338
337
336
335
334
334
333
334
334
334
334
332
331
330
328
331
330
330
330
330
329
330
332
334
335
335
335
335
332
333
335
336
338
338
339
340
340
339
340
341
343
344
343
343
341
342
340
340
341
343
344
345
345
345
345
346
349
350
350
351
349
348
348
348
349
349
349
351
349
349
348
348
348
348
347
346
344
344
343
344
345
347
347
348
346
344
342
341
341
342
342
343
343
344
344
344
344
344
343
343
343
341
340
340
339
339
339
341
339
339
337
337
336
336
336
337
337
337
336
335
334
334
336
336
337
338
340
339
339
340
341
341
342
343
344
344
343
342
341
340
340
340
340
341
341
340
339
340
342
344
345
347
347
346
346
346
345
345
345
345
343
342
341
343
343
345
347
348
347
347
346
345
345
346
347
348
348
347
345
345
346
347
348
349
349
349
348
348
350
350
352
353
356
355
355
354
354
355
358
360
360
360
358
357
357
357
359
359
359
357
355
353
351
350
350
350
350
349
348
346
345
344
344
344
344
343
343
343
343
344
343
343
342
341
337
334
333
332
333
336
339
341
342
340
338
337
336
336
336
338
340
342
342
342
344
346
352
362
369
388
410
435
462
490
513
526
524
509
485
453
406
339
266
201
157
139
143
162
191
224
240
267
288
307
320
330
338
344
350
355
358
359
360
358
357
356
353
351
349
349
349
349
349
350
353
355
358
360
361
363
365
366
368
370
370
370
370
369
369
367
367
366
367
369
370
369
370
371
371
371
372
373
374
373
372
372
373
373
376
380
384
386
387
387
386
386
387
389
392
395
396
396
396
395
396
397
399
400
400
401
403
407
410
413
416
417
419
420
421
423
424
425
427
428
430
431
431
431
434
435
435
435
435
434
432
431
431
429
428
428
429
426
427
421
419
414
410
408
406
403
400
396
391
384
379
375
371
368
368
363
361
357
352
348
344
344
341
340
339
337
335
333
332
331
331
332
332
334
332
332
333
332
332
330
329
329
329
329
329
330
331
330
329
327
326
326
327
327
327
327
327
327
327
326
326
328
329
330
332
332
331
330
329
328
329
329
330
331
332
332
332
333
334
335
336
336
335
334
333
334
335
338
339
339
338
337
338
340
343
347
348
347
345
345
342
341
342
344
346
347
347
346
343
341
340
339
341
342
344
346
346
345
344
343
342
340
340
340
339
339
339
339
341
342
344
345
343
342
341
341
343
343
345
345
345
343
342
340
339
339
342
343
345
344
343
342
343
346
345
346
346
346
345
344
343
343
344
345
345
346
343
343
342
343
344
345
346
346
346
344
343
342
343
345
347
348
346
346
346
346
346
346
345
345
345
342
341
342
343
344
346
348
350
350
349
348
348
349
350
352
353
355
355
354
354
355
353
352
352
352
353
352
349
350
350
351
351
350
349
348
347
346
347
348
349
350
348
349
349
348
347
347
347
347
348
348
348
350
351
351
352
353
353
352
351
350
350
350
353
353
354
355
355
355
356
357
360
363
365
365
364
361
359
358
359
360
360
361
361
361
361
362
363
367
368
367
367
366
367
368
368
367
367
366
363
361
358
356
355
356
358
358
356
354
351
349
347
348
349
350
351
351
351
351
351
352
352
352
354
352
352
351
352
353
354
354
354
353
351
350
351
350
350
350
348
345
344
342
343
344
351
366
387
413
441
471
497
521
531
527
512
489
457
410
346
274
208
162
142
141
153
178
208
239
267
292
314
333
344
352
356
360
362
364
365
366
366
366
365
364
363
362
362
362
364
364
364
363
362
363
367
368
370
372
372
371
371
370
372
373
374
377
375
376
376
374
374
373
373
373
374
375
377
379
380
381
383
384
384
384
384
386
386
387
387
386
387
388
390
391
392
394
395
398
398
399
400
401
400
403
406
407
409
409
408
409
411
413
417
421
427
429
430
430
430
431
432
434
435
436
437
438
440
439
439
440
441
441
441
440
437
434
433
432
433
433
434
432
431
425
421
416
413
410
407
402
398
394
388
383
380
378
374
371
367
364
361
356
352
350
348
347
346
345
341
340
340
339
339
339
340
339
338
337
336
335
334
334
334
334
334
331
329
329
331
332
333
332
333
331
330
330
331
334
337
338
338
337
337
336
337
336
337
337
337
338
338
339
340
340
341
341
343
341
339
337
337
339
339
339
341
340
338
337
336
336
336
338
339
341
338
339
339
339
341
344
346
348
349
349
348
347
347
348
349
350
350
349
347
346
346
347
348
348
348
349
348
346
345
344
345
346
347
346
344
342
340
338
339
342
345
347
348
347
347
348
345
345
344
343
342
342
340
340
339
340
341
342
342
342
340
341
341
342
343
343
343
342
342
342
343
344
345
344
345
345
344
343
343
342
343
343
343
342
340
339
340
342
343
347
347
346
347
346
344
343
342
341
341
341
342
342
342
341
342
342
341
342
342
342
342
342
342
344
346
348
347
347
346
345
349
351
353
353
352
350
349
349
349
351
352
352
355
353
352
351
349
349
349
349
349
350
349
349
349
349
349
349
349
349
348
347
348
347
348
350
352
351
352
353
352
351
352
352
352
352
351
350
349
347
347
348
350
351
351
351
350
347
345
345
346
350
351
354
356
358
357
357
357
358
359
359
359
359
359
361
361
361
361
362
363
364
365
366
367
368
369
369
368
366
365
363
361
360
359
357
356
356
357
358
359
358
358
353
352
350
347
346
348
348
351
352
354
354
354
353
352
351
351
352
350
349
349
349
350
350
351
354
354
354
353
353
350
350
350
350
351
356
361
378
400
426
454
482
508
527
535
526
508
483
448
397
329
255
194
153
138
144
165
195
211
244
273
297
315
328
338
345
351
355
360
361
363
361
360
359
358
357
358
358
358
359
360
362
365
369
370
370
369
368
367
367
368
369
372
375
375
376
375
376
377
378
378
378
379
379
379
378
378
377
380
382
385
386
386
386
385
386
387
390
393
395
395
395
395
395
398
398
399
401
402
403
403
403
404
404
406
409
412
412
413
415
418
421
423
424
425
425
425
424
425
428
429
431
431
432
432
432
434
436
439
442
443
443
440
439
438
438
437
437
437
436
435
433
430
427
424
420
417
414
411
406
401
397
394
391
388
385
383
379
375
371
369
365
362
360
357
354
351
349
348
346
344
343
340
336
334
333
333
333
335
338
342
343
343
342
340
339
337
336
335
333
330
328
328
328
330
332
334
335
335
335
334
334
333
335
335
336
336
335
333
334
334
337
340
343
345
345
345
344
343
343
342
343
346
345
345
344
344
343
343
344
344
346
347
347
348
348
348
349
350
348
345
344
342
341
343
345
347
349
349
348
347
346
344
343
341
340
340
340
339
339
340
341
342
345
346
346
345
344
341
341
342
342
342
342
343
345
346
347
348
349
347
348
346
345
344
342
343
343
344
344
343
342
341
339
339
340
340
340
339
338
337
334
334
334
336
335
336
337
337
337
339
341
343
344
344
342
342
342
342
341
344
346
347
347
346
346
345
346
346
349
350
350
348
346
344
344
345
345
347
348
349
348
345
345
346
348
350
351
351
350
348
345
346
347
347
348
349
349
348
348
347
347
348
349
350
351
350
349
348
347
346
343
343
342
341
341
342
344
347
349
350
348
347
343
341
340
342
346
348
348
349
349
349
350
349
350
349
350
348
347
344
343
344
345
348
351
352
352
349
348
348
349
350
352
355
358
359
359
358
358
360
363
365
366
367
365
365
366
367
368
368
367
365
363
360
359
359
358
356
356
354
352
349
346
344
345
346
348
349
348
347
346
344
345
346
348
348
349
349
350
350
351
349
349
348
348
349
348
348
349
349
351
350
350
348
349
349
350
352
356
367
384
406
430
456
482
505
519
520
508
488
457
416
359
290
223
172
155
140
147
169
197
230
257
280
300
314
324
330
336
342
348
353
358
360
359
358
356
355
354
353
353
353
354
355
356
357
360
362
363
363
364
363
363
363
364
364
364
365
367
367
368
369
371
372
372
372
371
370
370
369
369
371
373
376
378
381
379
379
379
379
380
382
383
384
385
386
385
387
386
387
390
392
394
395
396
397
400
404
407
409
410
411
410
409
409
410
412
413
414
416
418
420
423
424
427
428
430
430
428
428
429
430
432
433
433
434
434
433
432
430
429
428
426
424
422
419
417
415
415
414
411
408
403
398
395
389
385
381
379
376
373
369
365
362
357
356
354
353
349
346
343
339
337
336
335
335
335
335
334
332
330
330
331
333
334
335
335
334
334
331
331
332
332
331
329
328
327
326
327
328
329
330
330
330
330
329
330
332
333
334
334
334
334
333
334
335
337
340
340
340
339
339
339
340
340
340
341
341
340
339
338
337
337
337
337
339
341
341
342
342
344
346
349
349
349
348
348
345
343
341
341
342
343
342
342
342
343
345
348
350
349
349
346
343
341
340
340
340
341
341
341
340
341
343
343
344
344
343
343
342
341
341
341
342
343
342
341
340
340
340
341
340
340
340
339
338
335
335
336
338
341
342
343
343
341
340
339
338
338
336
336
336
337
338
340
341
341
342
343
343
341
338
335
332
333
332
334
336
339
342
342
343
344
345
347
348
349
348
347
345
344
344
343
343
342
341
341
339
338
339
340
341
341
342
342
343
343
344
344
345
346
346
345
345
345
346
344
345
345
343
342
340
340
340
343
345
346
347
347
345
345
345
345
347
348
350
352
351
349
348
348
349
350
351
352
351
350
349
348
349
350
351
351
347
348
348
349
349
352
351
352
351
349
347
345
346
348
353
358
361
362
361
361
363
365
366
366
366
363
362
361
362
363
363
363
361
359
357
356
355
356
357
357
358
356
351
346
341
339
338
340
342
344
345
345
345
344
343
344
346
346
346
346
346
346
347
347
346
346
344
344
344
344
345
345
347
348
349
349
349
351
354
359
372
391
416
442
470
497
519
531
527
511
488
457
437
385
316
243
180
143
131
141
163
192
224
255
281
304
323
338
348
354
357
358
359
359
359
359
358
356
354
353
351
354
356
359
361
363
365
365
367
368
369
371
370
371
371
370
369
369
369
372
374
376
376
376
375
373
374
373
376
376
376
376
377
377
378
380
381
381
383
384
384
385
385
387
389
391
393
393
394
394
394
395
397
399
400
400
401
402
405
407
410
412
413
414
414
415
415
417
422
427
431
434
435
435
435
435
435
436
436
437
438
438
440
440
441
442
443
443
444
442
441
436
434
433
434
433
433
431
429
425
423
419
414
410
406
401
396
391
386
382
379
377
374
370
368
365
361
358
356
354
352
349
347
345
343
340
338
336
334
333
332
332
331
333
336
339
342
342
341
339
336
334
332
330
331
331
331
330
331
329
330
333
335
336
337
337
337
335
335
334
335
335
336
336
336
336
336
336
336
337
339
341
342
343
343
345
344
346
347
347
346
344
344
344
343
342
342
341
341
341
340
340
340
340
343
345
346
347
345
344
343
343
344
347
347
347
349
348
349
349
349
349
349
347
346
343
341
342
343
345
346
347
347
345
344
343
344
344
345
346
347
346
345
343
343
342
343
343
342
343
343
343
343
342
342
341
340
340
338
337
337
338
338
340
341
343
342
341
340
340
340
340
340
339
338
337
337
339
342
345
346
347
346
344
341
340
340
340
343
345
347
346
344
344
343
343
344
344
345
342
341
339
339
339
341
343
344
345
346
347
348
348
348
349
348
346
344
342
343
342
343
345
348
350
351
352
350
349
347
347
348
349
348
347
345
344
343
344
344
344
345
346
349
352
355
356
359
360
359
357
354
351
350
349
351
352
355
354
353
351
349
349
348
348
348
349
348
348
349
349
351
354
355
356
355
352
350
350
353
356
360
361
363
364
364
364
364
365
366
367
367
367
367
369
372
373
372
371
369
365
362
359
358
356
357
359
357
356
353
352
350
349
349
351
353
355
355
353
352
351
350
350
350
349
349
349
350
350
351
351
351
353
352
351
349
346
345
344
344
345
347
347
348
350
356
367
385
407
432
459
486
511
521
534
534
521
499
468
421
356
278
207
156
132
130
147
177
209
243
271
295
315
330
336
344
350
352
356
360
363
365
366
366
365
364
365
365
366
368
368
369
368
368
368
368
371
371
371
372
372
372
372
372
373
374
374
374
374
374
374
375
376
376
374
374
373
372
372
373
375
379
382
384
387
389
390
389
391
393
396
396
396
396
396
396
397
397
398
399
401
402
403
400
401
401
403
405
407
408
408
410
412
414
416
417
417
419
421
423
424
425
430
435
440
442
443
445
443
441
440
438
436
434
433
432
431
430
429
429
428
428
427
426
424
422
420
417
414
411
406
402
397
392
388
385
382
377
375
372
368
365
363
360
357
355
354
353
350
348
345
344
342
341
340
338
338
337
338
338
339
339
339
338
338
336
335
334
335
336
338
339
339
339
336
332
329
328
327
329
330
331
332
333
334
334
334
335
337
338
338
338
337
338
338
339
339
340
340
342
344
345
348
349
349
348
349
346
345
344
343
343
347
351
353
353
353
351
349
349
348
346
347
347
348
347
347
346
346
347
347
346
346
345
344
342
341
341
342
342
341
340
338
340
341
345
349
352
352
351
349
347
345
344
344
344
344
344
344
345
