349
348
347
347
349
351
350
350
350
349
349
348
347
348
348
349
349
349
350
349
349
348
347
347
344
346
346
347
347
347
348
350
350
351
351
352
352
350
349
348
347
348
349
349
350
350
349
349
349
347
347
347
347
347
348
348
349
349
349
348
346
342
342
342
343
346
347
349
350
351
350
350
350
350
350
349
349
351
354
358
362
365
367
368
369
369
368
366
365
363
363
362
362
363
362
361
359
358
356
356
353
352
352
353
350
348
346
345
346
347
347
348
349
350
350
349
349
346
346
347
348
348
346
345
343
343
343
344
347
346
348
349
350
351
351
355
357
366
379
395
414
435
452
465
469
465
453
435
404
358
303
248
211
192
193
208
232
246
271
296
314
330
344
356
363
366
367
367
366
363
361
361
357
356
357
359
357
359
360
362
362
361
360
359
360
359
360
361
363
364
366
367
368
371
373
372
375
375
375
375
374
373
372
372
370
371
373
376
378
380
380
381
380
379
378
378
378
378
382
383
387
386
388
389
391
394
394
397
399
401
403
403
404
405
408
412
415
419
422
426
426
426
426
424
428
428
429
429
427
425
424
422
421
419
416
414
415
412
410
408
406
403
399
396
394
391
388
385
380
376
371
370
365
361
358
356
356
356
356
354
351
350
350
349
348
347
346
345
343
344
344
344
343
342
342
343
343
343
342
341
340
342
343
343
345
344
345
345
344
342
340
339
340
339
338
339
340
342
343
341
341
341
342
342
343
342
342
344
344
346
347
347
346
346
346
345
345
346
344
345
346
347
346
348
350
351
352
352
352
352
351
350
350
349
349
348
351
348
347
346
346
345
344
341
339
338
337
337
334
330
327
319
310
305
307
313
321
328
336
339
340
340
338
337
337
337
336
334
333
333
336
338
340
342
344
345
343
344
345
348
350
350
350
349
349
350
350
351
352
353
354
354
353
352
351
350
348
346
347
349
353
356
360
361
361
361
360
359
358
355
352
348
343
337
334
331
326
328
330
336
342
349
354
357
358
357
356
356
357
357
358
359
362
361
359
358
357
355
352
350
348
346
344
340
336
334
335
338
342
346
349
350
351
351
351
351
354
357
369
383
399
416
436
451
461
462
454
440
421
390
342
284
232
193
178
183
202
231
246
277
305
328
348
364
370
370
366
360
356
352
350
349
350
352
354
353
354
354
355
357
358
359
364
369
371
373
375
376
376
375
374
373
371
369
364
362
362
364
364
363
361
360
358
356
353
350
349
351
353
357
362
365
368
372
375
377
378
378
379
378
378
377
378
382
385
392
398
403
406
413
417
421
427
431
434
437
437
436
437
439
440
442
445
448
450
453
456
459
460
461
462
462
461
462
459
458
457
455
452
448
443
438
430
424
416
416
412
408
404
400
396
388
382
377
374
371
368
366
365
363
363
362
361
359
358
357
357
356
353
350
348
350
349
349
349
348
343
343
343
343
344
345
345
346
345
346
346
345
346
346
347
350
350
350
349
348
350
351
351
351
350
351
349
349
351
352
352
350
349
350
350
349
349
349
349
349
349
350
352
351
352
352
352
353
351
349
348
345
345
345
345
345
344
343
342
340
339
339
336
337
336
335
333
330
325
324
323
320
321
321
323
328
331
339
348
357
366
372
376
377
377
376
374
372
370
368
367
367
368
368
365
364
362
361
357
357
356
354
353
352
352
353
355
356
357
357
360
360
362
366
369
372
375
377
378
377
377
376
373
371
369
368
368
368
369
368
367
365
362
359
356
353
349
344
340
335
333
330
328
329
330
332
334
336
337
336
336
336
336
336
335
333
332
331
333
335
337
338
340
341
340
339
335
335
338
342
352
368
390
415
441
469
493
509
517
512
503
484
468
416
344
267
205
169
161
174
201
236
268
298
323
347
365
377
383
386
387
383
378
373
371
367
363
361
359
359
359
360
360
359
357
355
354
353
353
355
356
358
359
362
366
369
372
376
380
383
386
388
390
391
392
393
393
394
396
396
397
398
400
401
402
402
402
402
402
402
404
407
409
412
413
415
416
418
420
422
423
425
427
428
427
429
431
433
435
436
439
442
444
447
448
449
452
451
452
452
451
447
447
446
445
446
444
445
445
445
446
443
440
437
432
428
424
421
417
413
408
404
399
395
391
387
384
378
374
370
368
365
362
359
356
353
354
350
349
349
349
349
349
349
349
348
348
346
345
344
343
344
344
344
345
346
346
347
347
347
349
349
349
351
353
352
353
352
352
349
349
348
347
349
346
347
348
349
349
350
350
350
348
347
345
344
344
343
342
342
341
342
343
345
346
346
346
346
347
345
345
345
345
345
345
346
347
347
347
347
346
347
343
343
343
344
344
344
344
344
346
344
344
343
341
337
336
335
335
335
335
336
337
338
339
340
340
340
341
341
342
343
344
345
346
347
347
350
353
358
359
362
365
365
367
366
366
366
368
366
366
367
367
364
365
363
361
360
359
359
357
355
353
351
348
346
344
344
344
346
344
345
344
343
342
343
343
342
341
339
338
338
338
339
339
340
341
341
340
339
338
336
335
334
335
340
349
364
383
405
432
460
486
503
511
509
496
478
437
374
295
223
194
159
151
164
190
224
253
278
296
313
327
340
350
354
359
360
358
356
351
348
346
345
344
345
346
346
347
347
348
349
351
353
356
357
357
356
354
355
358
359
360
361
363
362
362
362
362
363
365
366
366
367
366
366
366
368
370
371
372
372
373
374
374
376
378
379
381
383
386
386
387
389
390
391
392
395
397
399
401
403
405
406
410
413
414
415
415
415
416
417
418
419
422
424
425
424
423
422
421
419
418
417
416
414
412
409
406
403
403
400
398
396
392
388
383
379
375
371
369
367
365
363
361
361
357
354
351
350
349
347
345
344
341
338
336
335
336
335
335
336
339
339
339
339
339
339
339
340
340
338
338
338
339
339
337
340
340
341
342
343
342
341
339
339
340
341
343
342
343
344
345
346
345
345
346
347
346
344
343
342
343
344
345
346
346
346
347
347
346
346
346
346
346
345
345
343
344
342
343
344
343
341
339
339
342
343
344
345
346
344
344
342
341
341
340
340
339
341
341
341
342
344
342
344
345
345
344
344
343
343
343
344
346
350
355
357
361
364
365
364
363
363
362
361
361
361
362
364
362
362
361
359
355
353
350
348
347
345
346
345
343
342
343
344
347
347
347
346
344
341
340
340
340
340
340
340
341
340
340
340
342
344
343
344
345
345
345
344
343
342
343
346
357
371
387
411
437
458
474
479
483
481
474
456
419
362
296
236
198
185
192
212
240
270
297
316
331
341
349
355
356
354
355
355
356
356
357
358
359
360
361
362
364
363
362
359
358
355
356
356
357
358
357
358
357
357
358
359
360
363
365
367
370
372
372
372
372
371
370
368
369
370
370
373
376
380
383
385
387
389
390
391
392
394
393
393
391
390
390
391
393
397
400
404
406
410
413
416
416
419
420
420
419
417
419
419
422
426
429
431
433
430
428
427
423
425
425
426
424
421
419
417
415
413
412
411
410
409
404
399
392
387
378
374
368
367
366
366
366
366
366
361
359
358
358
356
357
350
345
341
339
337
339
341
341
340
338
335
333
330
329
334
342
349
356
361
363
364
364
363
361
357
354
352
351
353
355
358
361
363
363
364
366
369
373
376
378
376
374
371
369
366
364
362
360
360
359
357
355
353
346
342
336
332
331
329
327
326
325
325
327
331
337
338
344
348
350
352
354
354
355
354
353
351
348
347
347
347
346
347
347
350
351
348
341
333
329
327
329
332
333
338
343
343
343
344
343
344
346
349
350
350
349
349
351
354
355
357
360
363
366
368
370
369
367
366
362
356
352
348
345
340
337
329
322
319
320
325
332
339
342
343
348
352
352
351
350
344
336
332
335
346
362
378
392
399
401
398
390
379
367
355
345
338
333
331
336
346
355
378
407
435
466
490
504
508
501
485
450
394
325
263
223
212
220
241
267
293
311
315
318
313
305
301
305
316
335
353
371
383
386
383
376
369
361
355
350
344
341
338
342
348
354
363
368
374
379
383
388
392
394
391
379
358
336
318
309
314
331
353
378
402
412
428
438
438
431
419
406
397
391
391
397
408
416
420
419
420
421
419
417
415
411
410
404
394
381
371
365
364
366
367
367
368
370
374
384
396
411
420
429
436
442
443
442
438
433
431
431
433
436
437
430
423
414
405
399
399
404
410
415
419
418
416
404
392
385
370
356
343
333
325
319
317
318
321
331
339
350
363
376
388
391
391
389
384
377
373
366
355
345
337
330
324
324
325
331
334
335
332
328
324
324
326
329
333
340
347
350
359
371
383
392
400
403
402
394
383
375
370
367
365
363
359
354
356
358
360
360
359
359
359
359
356
353
348
343
336
332
329
330
335
344
355
363
369
375
384
392
398
398
396
390
381
372
364
356
348
342
338
332
324
317
315
318
325
338
350
360
365
364
359
353
343
336
334
336
343
351
358
363
366
369
372
374
376
379
380
378
372
362
348
333
327
325
322
320
319
313
311
315
325
340
357
370
370
361
346
330
315
310
313
325
339
350
355
365
368
368
366
364
364
363
359
352
346
342
339
338
337
339
344
348
349
347
343
341
338
340
350
367
393
423
451
478
500
512
511
486
435
361
282
219
184
177
193
232
283
308
350
383
394
389
373
354
338
331
333
341
349
355
355
349
340
330
323
320
322
326
328
331
332
332
332
330
327
321
319
324
334
343
354
362
363
360
351
342
335
332
334
337
348
359
367
378
383
386
388
386
379
369
359
350
345
343
347
358
375
393
411
421
430
432
433
430
424
417
411
406
400
399
402
408
410
410
404
394
382
369
360
360
367
377
383
394
407
417
428
437
446
453
453
447
437
430
427
429
428
424
413
405
401
400
402
403
404
399
387
374
364
358
356
355
353
351
348
348
352
355
353
345
334
327
327
331
334
334
331
324
318
312
309
310
316
324
335
345
351
353
355
357
352
345
333
325
316
314
315
316
317
317
317
319
325
332
340
348
358
361
356
345
333
322
319
320
328
337
348
356
371
378
380
378
373
368
353
331
307
289
281
284
303
329
360
391
407
414
412
400
382
373
354
339
328
323
324
326
327
335
345
354
365
375
378
377
370
361
354
352
351
354
354
350
348
348
354
359
364
366
362
356
350
344
344
345
350
353
355
357
359
359
357
355
347
336
326
323
323
327
333
340
349
363
378
389
389
384
376
368
364
364
370
376
381
381
378
372
367
359
348
340
335
335
343
356
368
377
379
374
365
355
347
340
335
330
326
318
315
316
319
322
331
338
342
344
346
345
343
340
335
332
327
324
326
327
333
336
344
354
363
375
389
405
426
450
473
489
494
487
472
447
410
364
308
250
205
186
188
195
213
237
259
276
287
292
298
305
313
325
337
345
352
359
366
369
369
367
361
353
351
348
345
341
340
341
343
347
352
359
368
373
374
374
374
367
359
352
348
345
344
344
347
351
358
367
372
373
366
363
359
357
354
348
339
331
324
326
336
353
364
368
366
365
362
364
362
367
374
379
384
391
399
405
410
411
408
400
392
389
390
396
405
415
418
425
426
428
425
420
417
414
414
414
416
419
423
423
422
417
413
407
403
395
392
389
385
382
379
377
376
375
378
379
380
380
374
369
363
358
356
358
358
361
365
369
376
380
388
387
378
359
339
320
305
294
283
275
268
268
270
272
278
288
297
306
314
323
326
332
337
340
342
342
343
344
344
345
347
348
348
348
347
343
338
334
330
329
330
332
337
341
345
348
350
351
349
346
343
339
336
333
331
331
329
330
334
340
343
347
349
349
349
349
347
349
349
348
350
351
355
359
364
369
372
372
373
371
367
362
359
357
356
356
356
356
354
352
349
352
357
365
373
382
385
386
384
378
372
367
363
360
361
362
362
362
362
363
363
365
368
371
371
370
365
360
355
352
349
347
346
343
339
338
340
343
349
357
366
372
377
383
388
390
391
389
386
382
376
372
369
366
364
363
362
363
363
362
361
359
358
357
358
360
362
367
368
372
374
374
373
372
369
366
365
362
359
359
359
358
358
360
363
368
373
379
383
383
380
373
365
359
352
353
365
387
422
459
489
501
519
529
530
518
502
481
454
414
362
304
258
233
228
239
257
277
297
312
324
334
337
343
343
341
338
335
333
332
334
335
337
339
341
344
345
349
351
352
352
351
350
349
347
346
344
345
347
350
356
358
360
361
362
362
363
365
367
368
368
369
368
368
367
367
369
367
368
368
368
369
369
371
372
373
373
374
377
377
381
382
384
386
387
388
388
390
393
396
399
404
405
408
411
413
414
417
419
422
425
428
430
431
432
432
433
434
437
442
449
453
454
448
442
436
431
425
419
413
408
404
400
396
392
389
385
381
378
375
371
367
364
362
357
359
360
359
357
354
350
347
343
340
337
336
336
333
332
333
332
331
329
329
330
333
336
339
341
344
344
346
345
344
340
338
338
337
341
348
354
355
356
355
353
350
350
346
344
342
340
339
338
336
334
331
330
329
329
330
327
326
325
328
329
333
337
339
340
341
340
340
339
338
336
335
337
337
339
341
342
341
339
337
336
335
336
339
341
343
343
345
345
346
347
348
347
346
344
341
339
338
334
331
329
329
328
329
330
332
334
335
336
337
337
338
339
340
340
338
340
343
343
344
344
345
346
345
344
344
342
341
341
340
340
341
341
343
344
345
345
346
345
344
344
345
349
352
355
357
360
361
362
363
364
364
364
364
365
365
364
363
361
358
354
350
345
339
335
334
334
336
341
346
351
354
356
357
358
358
360
362
368
370
373
375
377
379
378
374
368
363
358
354
349
346
343
341
337
335
331
333
341
357
379
404
432
459
480
495
498
493
487
467
427
367
296
233
193
177
184
204
231
258
281
302
320
334
345
354
355
356
358
359
361
363
365
367
368
366
364
362
359
357
353
353
351
352
353
356
358
360
361
362
362
362
363
364
366
368
370
371
372
372
373
373
374
376
375
376
378
379
380
380
379
378
380
378
380
383
386
386
390
391
391
388
390
390
391
392
393
395
395
400
404
406
409
410
413
416
420
424
427
431
434
438
441
445
447
449
451
450
450
451
452
450
447
442
438
437
431
426
421
419
413
410
405
401
395
389
384
379
376
373
368
367
364
361
360
359
358
357
356
355
355
354
353
352
352
352
354
359
366
371
375
373
365
355
348
341
336
336
332
330
328
328
327
327
327
327
326
326
325
324
324
324
325
325
325
325
327
327
329
329
330
330
331
331
331
331
331
332
330
330
329
329
326
323
320
318
315
316
318
321
321
325
329
332
335
337
336
334
331
326
324
320
320
322
326
328
330
332
332
335
337
339
341
344
343
342
341
340
340
341
340
340
341
344
347
350
351
351
350
351
352
354
356
355
360
362
364
365
365
364
364
362
359
358
358
360
362
366
369
374
375
376
378
379
378
378
378
378
378
375
372
368
366
362
359
356
356
355
355
355
355
354
351
347
345
344
343
342
341
340
336
336
337
337
337
336
336
337
336
336
335
335
335
332
331
329
329
330
332
339
351
369
391
417
445
472
495
505
503
492
470
436
383
313
246
198
172
172
179
200
227
255
281
301
318
330
339
345
351
352
355
358
361
363
367
368
368
368
367
366
368
372
376
378
379
378
374
370
361
358
357
358
359
359
357
355
354
353
354
354
352
350
348
347
350
349
352
356
361
367
372
375
376
378
377
376
373
370
364
359
355
354
355
359
363
368
374
380
386
392
399
402
403
397
386
375
368
365
369
382
400
420
436
441
449
451
449
446
442
436
432
430
431
432
430
426
419
418
416
413
407
405
402
398
393
391
388
384
382
379
373
365
358
351
347
345
345
347
348
348
343
338
332
327
326
326
326
325
324
322
322
323
324
324
322
323
321
320
318
318
320
321
325
325
325
325
325
324
324
323
322
323
324
325
326
328
328
328
328
329
331
334
336
335
334
334
333
332
328
330
330
330
331
332
331
329
326
323
324
328
334
338
342
341
338
335
332
332
335
337
336
333
326
325
325
331
340
349
358
364
369
371
368
366
365
361
356
351
346
342
341
342
342
346
348
348
345
344
346
346
351
357
361
366
367
369
371
369
362
354
349
346
345
346
351
361
375
383
389
390
388
382
380
379
381
384
385
382
375
366
357
349
345
341
341
342
344
348
354
355
356
351
343
335
328
326
330
342
359
377
390
394
391
386
379
378
381
393
408
425
444
462
476
486
488
485
478
463
436
388
324
261
212
185
182
199
229
246
283
315
341
362
376
383
381
374
361
351
346
344
347
352
355
358
358
357
353
350
348
344
343
344
351
359
364
365
357
351
347
345
349
357
367
376
382
385
389
390
389
387
385
385
384
384
381
371
359
347
340
339
343
354
364
374
382
388
390
390
386
379
375
376
384
396
406
412
417
421
426
428
431
436
442
449
454
457
457
447
434
417
399
384
384
387
396
409
421
430
432
431
427
422
418
417
417
419
419
411
405
402
401
398
392
388
380
370
363
359
360
366
372
373
369
361
352
346
341
339
337
336
331
326
321
317
316
318
322
328
331
336
342
349
353
352
352
354
356
359
364
368
371
374
375
375
372
364
364
360
356
350
339
329
318
310
312
319
331
343
349
346
335
322
308
302
306
318
334
342
357
369
376
378
379
374
369
364
358
353
348
345
343
341
340
342
345
344
341
339
336
337
339
338
333
330
329
331
335
343
351
355
357
360
364
367
372
372
370
364
354
345
342
343
347
353
356
353
342
328
317
314
319
332
348
358
359
356
351
348
348
351
354
356
358
357
358
355
354
351
345
340
339
337
330
317
308
311
322
336
348
353
353
344
326
318
306
299
300
303
306
306
302
299
300
301
300
291
281
282
302
333
371
410
446
474
487
510
527
535
527
498
443
374
311
270
253
256
271
294
319
340
355
367
376
379
377
374
367
359
353
349
348
347
347
342
337
332
329
329
337
349
359
369
379
388
388
383
374
369
363
361
364
371
377
382
385
388
389
390
390
391
391
390
392
391
392
396
397
397
395
395
390
386
383
378
366
351
341
341
349
363
378
390
397
399
397
394
392
392
390
394
396
399
402
404
407
410
410
408
407
408
413
415
418
422
424
424
426
426
424
422
419
417
415
409
401
397
398
404
410
414
415
413
408
400
391
383
377
372
372
374
380
380
380
379
375
369
361
353
348
344
341
339
339
339
343
344
344
346
344
342
340
341
342
342
345
344
346
345
345
345
347
345
346
347
349
353
361
373
386
399
407
410
403
391
380
375
363
355
354
359
364
368
370
370
368
365
357
353
351
351
354
359
366
372
379
383
384
383
378
373
369
369
370
372
372
370
366
363
361
358
355
351
348
349
354
363
369
371
374
374
372
369
368
366
366
362
360
359
358
359
359
361
364
366
368
369
368
367
365
365
365
366
364
359
346
328
314
308
311
327
345
356
359
355
350
342
336
331
326
320
318
313
308
304
302
302
305
306
311
314
317
318
321
325
329
334
338
343
346
347
346
345
345
343
343
346
355
370
391
413
437
460
479
489
487
475
458
427
383
327
278
240
222
222
232
249
270
291
305
323
331
339
344
350
349
347
344
341
340
340
340
341
338
340
340
340
339
338
339
341
343
341
339
338
338
340
342
345
348
353
353
356
357
357
357
357
357
358
360
363
368
371
375
377
377
378
381
381
382
383
386
388
389
390
391
392
393
393
393
397
398
400
403
404
405
405
404
403
404
405
407
410
410
411
413
414
412
415
416
418
419
423
423
424
425
423
422
422
421
420
418
416
414
411
410
408
407
406
406
405
405
402
396
394
391
387
385
385
388
393
399
398
391
381
371
359
349
338
329
322
317
316
316
317
319
320
321
323
322
322
322
322
322
323
323
322
322
322
322
324
323
323
324
325
328
328
328
329
330
332
334
336
338
338
339
340
341
340
340
341
342
343
343
343
343
345
346
348
350
352
351
356
361
368
378
384
384
377
368
359
350
344
340
337
337
336
336
336
337
337
336
335
335
334
334
335
333
332
332
329
332
332
332
331
329
328
327
326
326
326
327
327
329
326
323
322
325
330
334
339
342
346
348
349
349
346
346
345
344
344
341
340
338
337
336
336
336
336
333
334
335
334
332
334
333
334
333
334
334
334
334
334
333
333
334
334
334
333
331
330
329
329
332
338
352
372
394
420
444
465
474
482
482
471
453
421
372
312
256
217
203
205
222
245
269
291
308
323
335
344
348
349
350
349
347
346
345
347
345
344
341
339
337
336
337
339
338
342
344
343
337
332
325
322
318
319
326
337
348
356
362
366
370
376
385
398
409
410
402
385
373
363
359
361
364
369
373
374
372
370
368
365
365
367
369
371
373
375
379
380
383
385
386
386
385
385
383
382
383
385
388
392
397
400
399
401
396
391
386
379
372
366
362
360
360
362
366
368
376
380
386
392
397
399
401
403
402
402
399
397
394
392
390
391
391
393
394
396
397
397
394
388
380
371
364
359
356
353
349
344
339
333
327
323
321
320
321
322
324
325
328
331
336
342
348
352
353
352
350
348
346
345
348
353
360
365
367
367
365
363
360
356
355
354
355
360
363
367
370
371
371
367
366
367
367
367
368
367
366
363
359
357
353
354
354
354
354
354
350
350
350
347
346
343
340
336
336
334
335
338
340
343
347
349
354
358
359
359
357
355
353
353
353
355
354
353
352
350
349
347
345
344
341
340
338
338
338
338
339
339
339
339
341
340
341
344
347
349
351
353
353
353
353
353
352
351
350
348
348
349
351
355
357
361
364
366
366
367
368
368
369
371
373
375
376
377
385
391
407
424
442
466
487
504
512
508
496
478
444
390
320
255
204
178
178
194
219
250
276
288
313
329
346
357
364
365
363
359
355
350
346
342
339
338
338
338
338
335
338
340
341
345
344
346
346
347
348
349
349
351
352
354
356
357
358
360
362
363
364
365
364
364
364
365
367
369
372
372
375
378
380
383
386
390
394
397
399
401
402
404
407
409
410
412
412
414
416
416
417
419
420
422
425
428
429
430
431
428
428
429
431
434
435
437
437
437
436
434
432
430
427
424
422
422
422
420
418
414
409
403
396
391
386
382
380
379
380
381
383
382
378
375
372
368
364
362
360
360
357
353
348
345
345
347
350
353
356
356
356
350
344
339
331
329
330
333
337
342
348
348
347
345
343
341
343
341
340
341
342
345
348
351
353
353
352
350
349
351
351
353
354
354
350
346
341
339
338
334
334
334
337
341
343
345
349
350
353
356
358
360
360
358
354
346
339
331
327
328
329
334
338
341
346
350
350
349
349
349
348
348
346
348
352
359
368
373
379
381
379
373
365
357
354
349
343
343
346
351
353
355
353
348
341
335
331
330
331
334
337
341
342
341
336
333
328
325
325
327
330
333
335
334
334
329
328
328
329
331
336
339
340
339
339
335
333
332
332
334
342
353
369
389
414
440
456
461
453
438
417
386
344
293
241
198
178
177
183
199
222
248
274
299
322
343
355
363
360
351
336
324
318
320
330
342
354
363
369
370
365
357
342
328
317
313
314
317
322
326
333
339
346
348
348
343
333
323
320
320
322
324
327
337
352
366
376
387
390
385
374
365
362
363
368
375
379
381
379
377
377
380
383
390
397
403
403
401
399
399
403
407
410
413
417
419
423
426
426
421
415
413
411
416
416
416
417
419
422
426
435
440
446
447
447
446
444
444
446
453
452
443
428
409
393
386
378
377
378
376
368
355
347
343
342
348
356
365
368
368
363
356
351
349
350
352
355
355
353
350
345
337
331
327
324
323
326
332
339
344
349
351
350
349
352
353
352
350
345
340
339
340
346
355
366
374
377
374
371
369
368
365
360
354
348
345
348
356
369
376
388
394
390
381
365
352
341
337
336
337
342
350
355
360
363
366
370
374
378
378
376
367
359
356
359
364
369
369
367
362
351
340
330
322
320
320
319
315
318
326
336
342
349
352
356
357
356
352
350
354
356
364
371
381
385
384
381
373
361
343
329
319
312
308
307
309
312
313
318
324
331
342
351
360
365
362
346
330
320
321
332
353
372
388
395
400
407
417
433
449
462
466
464
451
420
367
303
242
196
177
180
203
242
283
317
329
344
347
341
332
325
320
318
319
325
332
341
346
345
338
331
322
319
322
326
332
340
340
343
346
344
345
346
345
345
348
354
364
375
383
385
380
368
356
353
358
361
362
360
353
346
341
339
343
351
361
371
383
388
390
388
383
380
378
377
380
385
397
409
416
420
419
411
397
379
363
350
344
346
356
375
393
413
427
438
447
454
454
449
439
425
418
405
397
391
389
393
402
415
430
440
447
449
446
436
420
403
386
368
358
352
348
344
345
343
343
346
344
340
337
335
340
349
359
365
365
366
364
355
339
327
318
312
310
310
309
305
302
299
299
304
311
305
295
284
278
278
274
267
261
257
260
274
301
328
338
351
356
352
342
336
336
342
350
360
373
388
401
407
400
385
364
344
328
319
315
316
326
342
362
382
397
403
397
379
354
335
323
319
323
330
338
343
347
349
358
373
381
398
416
425
427
423
418
413
405
392
381
374
365
351
343
339
337
338
347
356
362
366
368
368
365
360
356
356
357
358
356
352
347
337
328
324
325
338
358
372
376
372
369
363
363
363
362
359
355
347
337
325
316
311
317
334
356
383
412
443
471
489
495
491
486
472
446
404
350
294
255
237
236
244
263
283
308
331
350
362
366
364
358
352
342
331
331
332
339
348
355
362
368
372
374
375
376
376
373
364
355
347
344
344
348
357
366
370
379
383
383
377
368
356
340
327
318
320
332
350
363
373
379
387
390
395
398
402
401
400
395
390
386
381
377
375
375
375
375
377
381
386
393
400
405
406
403
398
391
383
379
372
370
376
385
400
416
428
432
440
444
445
444
443
441
440
440
437
432
422
413
408
404
404
409
415
417
416
413
407
400
393
387
383
378
374
373
374
374
376
378
379
380
380
384
389
395
400
402
401
398
392
389
390
393
394
391
381
369
356
348
347
353
363
369
381
387
389
389
389
386
381
374
369
367
365
363
363
364
363
365
368
373
378
383
385
385
384
383
376
369
363
358
351
345
333
320
307
301
300
304
312
319
325
327
328
327
328
332
337
342
341
337
331
328
328
334
343
355
362
369
373
376
379
381
383
385
385
385
384
383
382
379
377
375
372
369
368
365
364
364
363
361
360
355
354
353
352
350
348
346
344
344
346
348
351
355
357
359
359
358
356
355
354
353
352
351
349
348
349
347
349
355
368
379
398
413
427
443
454
457
451
439
414
378
331
288
257
247
255
274
295
306
328
347
363
376
385
390
392
390
386
385
384
380
377
375
372
370
370
373
375
375
377
378
380
381
377
377
377
379
382
385
387
389
388
388
387
385
384
382
381
381
382
383
387
395
411
422
424
412
396
375
364
358
357
360
364
368
371
373
375
377
378
381
381
381
382
384
386
387
390
393
394
395
396
396
396
396
395
394
395
391
388
384
380
376
373
370
368
369
371
375
378
382
384
386
387
387
385
385
384
382
382
379
377
375
374
373
372
370
369
368
367
367
367
368
369
374
381
384
381
374
364
357
352
344
340
338
337
336
339
338
338
338
339
339
340
341
342
342
341
344
344
344
344
344
345
345
345
346
346
346
346
346
345
344
344
342
341
340
340
342
340
340
341
340
336
337
337
337
336
336
335
333
332
327
321
317
319
322
325
331
333
336
338
339
341
343
343
342
342
343
342
342
343
344
346
348
350
351
352
352
351
350
350
349
349
348
349
348
346
345
342
339
337
336
333
334
335
338
343
348
349
350
349
346
342
338
334
333
332
332
333
332
331
331
330
328
324
317
315
317
323
332
341
350
360
372
391
417
450
489
517
528
522
504
481
469
442
405
354
298
242
199
175
179
194
217
242
264
282
295
305
312
318
320
322
320
321
324
330
336
341
345
345
346
344
342
343
345
348
352
356
359
357
352
345
338
331
327
320
309
303
295
292
291
292
296
301
307
315
320
329
334
338
342
346
352
360
367
376
382
393
403
411
416
420
427
430
434
431
427
418
414
411
407
404
402
401
400
401
399
398
396
395
394
395
398
399
397
396
395
399
402
406
409
411
415
417
418
418
417
413
412
409
406
404
402
400
400
402
403
404
405
407
405
403
400
397
392
387
381
375
372
369
368
364
367
363
360
358
355
354
352
349
348
346
346
345
346
344
347
349
348
350
349
349
348
346
345
345
346
345
349
351
352
353
353
352
352
350
347
344
342
339
339
339
340
341
343
345
345
347
349
351
353
355
356
356
357
358
357
358
354
352
350
349
350
349
350
351
352
354
356
356
358
356
356
356
356
357
357
359
361
364
367
369
373
374
374
374
374
375
375
378
381
384
386
387
387
388
387
385
378
369
359
352
348
346
346
344
344
345
346
347
347
347
346
345
345
345
346
348
348
348
348
347
346
343
340
339
334
331
331
332
342
356
377
400
425
449
467
477
476
465
448
421
377
314
253
202
173
167
180
191
218
249
279
306
330
350
361
367
367
363
359
354
351
349
347
347
347
348
349
349
350
351
352
355
353
353
353
353
353
354
354
353
353
352
353
352
351
349
347
346
347
344
345
345
346
348
350
351
354
353
353
354
355
356
358
360
362
364
364
366
369
371
373
376
379
382
383
385
388
391
393
395
397
401
404
407
412
414
414
415
416
418
420
422
422
423
422
421
419
420
421
421
425
430
429
432
431
430
428
424
421
417
413
408
403
400
399
396
394
391
387
384
380
376
372
368
364
361
358
355
353
351
348
345
344
343
343
344
346
348
349
351
353
356
355
354
351
348
347
346
348
349
349
349
348
348
346
348
349
350
352
352
351
350
349
348
348
347
348
348
351
354
356
357
358
359
359
359
360
360
360
360
359
359
360
360
359
357
356
354
357
358
358
356
355
350
349
350
352
351
351
350
349
350
350
351
351
353
354
356
359
366
368
369
368
363
359
356
354
353
352
353
353
353
353
350
349
348
349
348
348
347
345
344
343
342
343
345
346
349
350
347
348
348
348
348
348
349
350
351
350
348
345
341
338
337
339
346
360
380
401
422
444
466
481
486
488
478
464
438
391
326
254
194
161
156
173
201
235
269
292
312
328
341
350
356
359
364
365
365
363
360
357
351
345
339
332
324
315
312
314
322
333
345
354
361
366
368
368
368
364
362
361
360
359
360
359
358
356
353
349
343
338
335
336
340
345
350
353
355
361
367
370
369
366
362
360
360
362
367
373
381
390
400
406
411
412
412
407
402
399
396
397
400
404
408
409
410
411
409
405
399
394
392
392
390
390
391
392
396
404
409
412
412
409
404
398
393
388
388
390
392
387
383
374
363
353
347
344
344
346
347
345
345
344
339
334
329
325
322
319
318
319
322
324
326
326
327
330
338
348
357
364
368
367
364
358
349
341
335
329
322
319
319
320
322
324
328
330
330
332
336
342
344
346
346
345
345
345
342
340
340
338
340
343
348
354
359
363
366
362
362
358
352
347
342
340
340
342
346
351
356
360
360
356
348
340
335
334
337
343
350
358
363
368
373
372
369
367
362
352
346
343
345
348
349
350
350
348
346
344
344
346
349
354
359
362
367
372
379
382
384
381
375
367
360
350
341
334
329
324
321
317
314
315
316
321
327
329
333
336
339
346
357
370
382
395
407
420
429
435
433
425
412
382
339
289
247
224
224
240
264
277
299
314
327
335
345
351
358
362
362
365
370
376
374
369
361
354
351
356
360
367
366
366
362
356
351
353
351
350
350
349
345
340
333
327
324
322
321
323
327
330
331
328
327
323
319
319
326
341
353
363
373
377
378
382
387
389
386
379
370
361
354
352
361
366
376
380
381
379
379
382
392
405
418
424
428
430
425
424
426
429
429
424
420
416
411
409
406
402
399
400
402
408
416
420
419
414
405
397
391
385
387
389
393
399
403
403
401
393
377
360
343
327
319
312
314
325
335
344
348
348
346
346
345
342
336
329
322
320
319
322
333
347
361
370
373
372
369
364
358
349
338
331
325
319
315
313
315
323
328
332
331
327
317
305
291
280
276
273
277
283
289
300
309
314
317
322
331
344
359
374
380
389
397
405
412
418
417
410
397
381
364
348
336
329
329
336
347
357
360
361
350
343
328
316
312
321
338
356
375
391
400
404
407
412
416
421
423
418
404
387
369
360
357
357
361
369
378
393
408
420
425
427
424
417
408
398
384
366
352
341
332
320
309
311
317
340
373
410
450
483
506
518
518
505
482
450
402
341
282
233
203
193
199
218
247
263
294
317
332
341
346
347
347
345
342
336
332
332
336
342
350
359
368
377
384
387
385
382
375
371
371
375
376
381
383
382
373
365
353
342
335
336
341
348
354
356
355
353
352
353
360
372
385
392
394
391
383
373
365
358
359
369
378
383
380
370
349
329
317
313
312
318
329
347
367
389
409
428
443
452
454
449
442
434
427
422
420
418
418
417
416
415
413
410
408
406
401
400
399
399
399
401
404
404
400
392
381
369
359
356
359
368
373
388
403
412
413
404
386
362
334
309
293
291
300
314
330
342
350
358
361
365
368
369
368
366
361
352
344
338
332
325
320
311
306
306
314
326
342
360
376
380
378
368
353
346
332
324
323
326
328
330
331
331
332
336
346
356
364
369
369
367
362
362
366
370
371
370
366
359
354
348
343
339
337
337
334
329
323
316
314
318
326
340
354
366
372
373
371
363
357
354
353
353
356
359
363
368
375
380
382
377
372
362
354
346
344
345
346
345
341
335
331
330
332
334
335
336
336
337
339
339
336
333
330
330
334
343
354
364
369
370
368
365
366
371
384
401
422
444
462
470
468
456
440
415
375
327
281
250
237
238
248
266
287
305
318
327
334
336
336
334
336
339
348
358
370
382
391
397
401
404
406
406
405
401
396
391
383
378
374
368
364
360
360
363
365
369
374
380
382
380
375
368
363
356
349
343
338
335
331
327
323
316
309
305
302
301
302
305
307
307
307
310
316
322
328
332
334
335
338
342
347
351
353
353
352
350
349
346
346
350
356
359
362
363
363
364
367
372
377
379
380
378
376
376
376
378
382
385
388
391
392
393
393
392
390
387
384
379
374
369
367
362
358
355
353
347
344
343
343
341
344
345
343
339
338
337
336
336
336
336
336
336
336
335
334
334
333
336
337
338
339
339
337
337
336
334
334
333
332
329
330
330
330
333
335
336
336
337
339
341
340
338
335
332
330
328
329
331
335
339
341
345
346
346
346
345
344
342
343
341
340
341
340
341
341
342
342
342
341
341
340
341
340
342
343
344
345
345
345
344
344
344
343
346
348
350
349
346
342
338
335
335
335
336
336
336
334
334
334
334
332
331
331
332
332
331
331
331
330
332
330
330
330
332
328
328
328
326
325
324
325
331
343
360
381
402
424
444
456
456
443
429
404
366
317
292
245
213
200
207
223
245
270
293
307
319
328
334
336
337
338
341
342
344
345
345
344
343
343
342
342
341
342
340
343
345
346
347
347
347
347
347
347
347
347
348
348
350
349
349
349
350
350
355
356
358
360
358
358
358
358
358
359
360
364
365
367
367
369
369
368
369
370
371
373
375
378
380
381
381
380
382
382
386
389
391
392
393
394
395
396
396
396
395
396
394
395
395
396
393
395
396
397
398
397
396
397
394
392
391
389
388
385
384
383
381
377
374
370
366
364
360
356
353
349
345
342
340
339
338
336
333
328
326
322
319
320
323
326
329
331
333
331
330
330
331
333
336
338
340
337
337
337
337
337
338
340
342
342
342
342
344
346
349
351
351
350
345
346
346
346
347
348
349
351
353
354
356
358
359
356
352
348
345
344
344
344
346
348
351
353
354
357
356
356
355
353
350
351
349
347
347
348
350
354
358
362
364
365
365
361
359
357
355
354
356
360
363
364
368
369
367
365
362
361
363
366
369
369
364
360
353
349
347
347
345
346
346
346
346
346
345
345
345
345
344
344
344
339
339
336
334
331
328
329
335
347
366
389
413
440
449
466
474
472
462
448
420
373
313
253
208
184
186
202
227
255
284
306
325
339
347
351
350
351
347
344
343
338
333
329
327
326
327
328
331
334
335
336
337
337
339
340
339
340
339
340
339
339
339
339
340
342
343
343
342
344
345
346
346
347
344
342
340
337
337
336
337
340
342
344
346
348
347
348
349
350
352
354
358
361
364
365
363
361
361
359
360
361
363
366
368
370
372
373
375
377
378
379
380
381
381
382
382
382
384
385
386
386
387
386
386
383
382
381
382
379
378
377
374
371
369
367
364
363
359
355
350
344
341
336
333
331
331
333
336
338
337
334
329
324
317
316
313
310
310
305
306
307
310
311
310
311
309
309
308
309
308
307
307
308
309
311
313
315
316
317
318
318
319
321
319
319
318
317
317
317
317
318
318
318
318
316
314
313
314
315
316
314
315
314
315
318
319
321
322
322
319
317
315
314
314
314
314
314
314
314
313
312
312
311
310
311
313
314
316
320
324
328
331
332
332
330
328
325
322
321
321
323
328
330
330
328
325
321
317
314
313
311
310
308
308
309
309
311
313
314
316
316
317
317
318
319
320
320
319
316
318
318
318
318
318
316
317
318
317
320
330
348
368
393
420
445
465
476
474
466
449
420
399
342
274
213
174
160
170
193
222
252
278
301
321
339
353
359
359
355
349
345
339
339
336
336
337
337
338
339
340
341
343
344
344
342
342
341
342
344
345
346
346
346
346
348
346
348
347
349
350
350
351
352
353
355
357
358
359
362
362
362
360
359
358
357
357
357
358
360
362
365
368
367
371
374
375
376
376
378
377
377
378
379
381
383
386
387
390
391
390
392
394
396
397
398
397
397
398
400
401
402
403
402
401
400
400
397
396
395
394
393
390
392
389
386
383
379
375
371
368
366
363
361
358
356
355
353
351
348
346
344
341
339
338
338
338
339
339
338
337
336
336
337
338
335
336
337
337
338
338
339
341
343
346
347
347
346
342
340
339
338
337
337
336
337
337
337
336
337
339
338
337
337
338
338
338
339
339
338
338
338
339
342
341
343
343
344
341
339
339
339
340
340
340
343
342
344
344
343
342
341
340
339
339
338
336
335
334
334
334
335
335
332
335
335
338
340
343
345
347
348
348
347
346
345
344
343
342
343
343
343
343
342
338
334
332
329
328
329
330
331
332
333
332
330
328
328
329
331
331
331
331
331
333
334
337
338
338
335
337
336
336
335
333
331
329
330
337
348
365
386
410
431
452
466
468
460
446
437
409
368
313
257
215
194
194
211
233
258
284
307
326
341
352
357
358
356
353
350
349
349
346
345
345
347
348
349
349
348
346
346
344
344
344
345
346
348
350
351
351
350
349
347
343
343
344
347
353
357
360
361
361
362
362
362
363
361
362
363
364
365
364
365
366
367
367
367
366
365
366
367
369
371
370
370
368
367
366
368
368
369
368
370
372
374
378
383
386
390
394
392
394
395
394
394
396
396
397
399
399
398
395
390
384
382
381
385
391
397
401
403
402
400
396
391
386
384
380
374
367
362
357
353
352
351
355
357
361
363
361
358
354
350
344
341
340
339
337
329
320
313
307
307
312
321
328
334
337
340
342
344
345
349
356
363
369
372
375
376
382
385
389
386
384
379
376
372
370
369
368
369
368
366
364
361
358
354
350
347
345
346
349
353
357
358
357
352
345
334
326
321
314
308
306
306
307
309
314
320
327
330
332
334
336
342
349
357
365
375
382
384
383
381
378
371
363
356
350
345
342
341
342
344
344
343
341
335
334
335
337
340
342
343
341
338
338
341
350
363
372
377
375
368
360
355
357
360
362
362
360
355
349
341
336
333
333
332
344
361
379
398
417
435
450
461
465
462
451
437
408
367
316
268
236
227
228
242
263
290
315
335
348
356
361
362
364
361
357
354
354
357
365
375
385
390
393
389
385
379
368
359
352
348
351
359
369
382
396
409
419
428
438
440
436
426
414
400
385
379
367
358
350
345
343
343
342
345
345
346
347
351
357
367
378
387
394
397
393
387
385
382
384
390
402
413
421
423
422
414
407
397
388
381
378
381
390
404
420
432
440
443
441
434
426
416
408
405
402
400
398
398
394
399
407
416
425
431
429
418
403
389
379
377
378
385
393
395
394
387
374
357
343
329
317
309
308
311
314
319
321
320
320
328
334
351
373
392
405
412
409
398
387
378
374
366
361
356
353
350
348
346
348
350
356
363
365
369
368
360
352
341
334
332
334
337
341
344
345
345
342
338
338
342
351
361
371
376
381
385
383
380
375
368
363
359
349
341
330
322
321
327
337
348
358
365
371
377
380
386
392
397
401
402
403
405
405
403
397
387
374
361
350
337
334
337
344
351
357
359
358
357
353
350
348
349
346
344
341
335
327
318
314
314
318
324
331
340
348
357
365
366
368
364
359
356
357
359
363
365
370
377
392
411
433
455
479
499
512
506
480
439
412
346
277
206
150
126
132
168
211
251
281
300
312
320
329
338
350
363
376
388
400
411
416
420
418
409
392
372
356
349
353
367
377
384
385
383
377
369
368
374
382
391
403
408
417
424
428
430
433
436
438
441
444
443
440
434
427
418
410
401
393
384
373
366
363
361
365
372
380
386
388
389
393
399
410
420
427
421
407
389
377
377
386
402
423
445
455
468
471
465
456
448
447
447
449
450
449
447
445
436
423
402
376
354
336
327
329
333
347
369
392
409
419
417
410
401
393
384
383
382
384
387
388
394
397
399
400
399
399
403
407
406
397
377
352
328
310
298
295
296
302
311
320
332
346
363
380
390
392
388
386
380
371
365
359
352
342
336
335
336
337
332
323
318
319
325
335
351
369
380
385
385
381
378
375
372
367
362
362
364
369
374
376
373
366
351
336
325
322
326
334
348
353
356
354
353
357
368
382
396
409
413
409
403
396
389
381
364
348
336
331
335
344
354
360
373
385
397
405
409
405
396
386
378
375
374
373
374
374
376
376
373
371
370
369
368
368
367
359
348
335
321
315
321
336
356
375
392
401
402
399
397
397
394
388
382
379
374
374
378
387
400
418
438
455
460
450
430
402
367
323
284
253
237
241
258
282
310
326
351
368
377
377
367
357
352
351
357
368
378
377
375
368
362
359
358
354
346
333
325
307
292
285
291
309
332
354
376
397
408
415
415
411
400
391
383
381
380
379
372
367
354
342
334
334
341
349
358
362
361
357
355
355
361
372
385
397
403
399
395
386
380
377
385
397
408
421
432
441
447
448
446
444
443
445
442
433
417
400
385
376
373
378
383
394
408
423
436
448
455
457
453
441
426
407
387
372
360
358
361
371
378
388
400
407
419
432
439
441
436
424
410
395
383
370
361
352
348
349
355
364
369
378
382
383
379
377
369
362
359
357
354
352
350
349
348
345
344
344
342
339
336
336
337
342
349
358
364
375
384
391
391
385
375
364
354
350
352
362
372
381
385
384
378
371
367
366
369
375
378
385
390
393
390
388
384
379
374
370
367
366
364
360
354
347
342
335
333
333
333
333
333
334
331
328
326
326
326
325
320
318
315
310
308
312
319
328
337
344
348
348
349
344
343
343
345
346
349
350
347
344
341
340
340
340
339
337
335
334
332
331
329
329
325
319
312
309
306
305
309
315
323
328
333
336
338
335
333
331
328
327
326
326
333
337
351
371
392
418
438
455
462
457
445
427
399
357
310
265
236
226
228
245
266
288
298
315
330
343
352
358
361
358
355
354
348
345
341
339
338
339
340
343
345
347
349
350
350
352
352
353
354
353
354
354
353
354
354
354
355
354
354
355
357
356
357
358
359
359
360
360
361
361
361
361
361
363
361
362
363
364
364
365
365
367
368
372
373
376
378
378
380
382
383
384
387
385
386
388
390
392
395
396
397
399
399
399
400
401
402
404
407
407
409
410
409
410
411
409
411
410
410
408
407
405
404
402
401
397
394
392
391
386
385
385
384
383
382
381
379
375
371
367
364
363
359
357
355
354
352
352
349
347
347
346
345
344
340
335
331
328
328
329
332
337
340
341
340
337
333
329
327
327
329
332
332
332
331
330
329
326
327
327
328
328
328
328
328
328
331
333
336
338
338
336
334
333
330
329
331
332
336
339
338
341
339
339
339
340
340
340
339
343
343
344
346
350
351
351
353
353
355
357
357
357
357
356
355
353
350
344
340
335
331
327
325
323
322
321
320
319
319
321
319
319
319
319
319
320
322
325
326
326
324
322
319
316
314
313
314
313
314
316
317
318
319
318
317
315
314
312
311
312
312
316
319
323
326
328
330
331
331
335
331
330
328
327
327
331
341
359
379
402
426
448
463
467
460
442
420
387
341
316
268
228
208
208
221
240
260
281
297
313
327
342
348
352
353
350
347
347
349
353
358
359
364
368
372
373
371
366
360
356
353
353
353
353
353
354
355
359
359
360
361
362
360
363
364
365
367
369
372
373
375
374
375
376
376
376
374
375
375
375
375
376
377
376
376
374
376
379
380
380
380
379
379
380
385
391
397
402
406
408
408
407
407
406
405
406
406
406
407
408
411
414
418
421
426
431
433
433
430
424
419
413
408
404
400
399
396
394
393
389
388
386
386
387
387
386
385
379
372
362
353
346
343
340
340
341
346
346
351
356
361
364
366
368
368
367
366
365
364
365
364
364
362
363
361
359
357
357
356
356
358
357
357
359
360
362
363
364
366
368
371
371
377
384
396
401
397
388
375
359
351
335
320
302
280
269
272
288
306
329
349
363
369
371
371
370
369
367
366
364
364
365
369
376
384
390
394
397
399
399
398
395
391
388
382
377
373
369
364
359
354
352
351
351
352
353
354
351
349
346
345
340
339
339
338
339
340
341
343
345
347
348
348
348
347
345
342
340
339
342
346
351
355
356
355
352
348
345
344
342
342
340
337
333
331
328
329
330
333
337
339
341
343
343
342
341
340
338
337
338
336
336
336
336
336
335
333
333
334
338
349
368
390
413
437
461
477
482
478
462
439
398
339
270
211
172
158
167
178
206
239
271
297
320
340
356
363
362
359
353
348
345
344
344
345
345
345
345
345
343
341
338
336
334
334
336
338
342
345
347
348
350
350
351
351
349
344
342
341
341
342
343
347
347
350
351
352
353
354
355
356
358
359
361
364
367
370
370
370
370
370
372
371
372
373
375
379
383
388
391
394
395
394
393
390
390
390
390
392
394
398
403
410
413
419
421
423
420
420
418
414
411
406
402
397
395
396
398
401
402
402
400
398
397
394
393
395
398
400
401
399
396
392
384
377
372
364
358
351
346
343
339
337
336
338
341
343
347
350
353
351
351
350
351
352
355
359
361
362
360
357
354
348
345
345
344
346
348
351
354
359
366
369
369
366
362
354
347
342
335
334
334
337
338
337
334
329
323
320
319
321
326
333
339
342
340
336
332
330
331
335
338
339
339
339
335
334
334
335
336
337
339
341
342
341
341
343
348
351
354
353
351
344
337
331
328
327
326
325
325
325
327
326
324
324
324
328
334
336
335
332
327
320
316
314
315
316
313
315
318
324
332
343
349
358
365
369
371
372
370
366
357
346
335
327
322
322
325
329
332
335
336
335
331
329
326
324
321
317
312
308
306
309
317
325
335
342
349
354
366
381
403
426
446
463
473
482
483
475
461
445
420
378
315
248
193
162
159
178
208
243
276
302
320
331
342
347
349
352
352
348
348
347
346
346
345
344
342
339
338
338
338
336
336
337
338
339
338
338
336
335
333
331
330
328
328
325
322
322
321
323
327
334
340
346
346
349
350
346
344
343
344
349
357
363
372
377
381
381
379
375
373
371
372
376
378
379
381
383
387
391
392
391
389
386
386
389
393
398
402
403
402
402
402
406
412
419
425
426
423
419
416
413
412
413
410
403
394
386
382
386
393
402
414
423
431
436
442
439
434
425
415
402
394
378
364
354
351
354
364
376
380
377
370
359
346
333
322
310
305
307
318
333
347
361
366
370
367
359
352
348
350
355
362
366
366
358
352
345
336
331
328
329
331
333
338
340
345
350
355
361
365
363
354
341
328
321
324
337
358
378
388
384
375
361
347
332
325
319
318
323
332
341
348
351
349
348
346
346
348
352
354
356
356
356
353
353
359
367
371
377
377
370
360
352
350
351
361
371
385
397
405
412
414
405
393
378
363
345
336
336
339
341
337
330
325
327
336
345
351
353
352
352
352
353
353
350
344
333
321
310
305
302
304
309
316
321
329
332
333
331
326
325
332
346
367
394
420
447
471
487
491
489
486
476
455
419
370
316
274
254
252
261
274
281
284
286
286
288
298
312
328
340
346
346
345
342
340
338
338
339
333
332
336
343
351
356
361
359
356
351
341
328
316
307
306
309
319
328
335
336
338
336
333
329
328
332
342
354
363
368
367
362
356
351
354
358
363
374
383
389
391
388
384
385
388
389
389
387
383
377
374
371
371
371
370
364
359
356
354
356
360
366
375
388
397
407
415
423
425
427
427
425
422
422
419
418
417
417
415
408
399
386
372
357
345
339
337
343
351
364
377
389
399
408
414
417
411
397
382
370
365
359
358
359
360
361
365
371
379
384
386
379
368
354
339
326
317
313
317
322
332
339
352
366
374
379
379
376
370
362
354
348
339
329
323
320
314
311
312
316
323
329
333
339
339
333
327
323
321
318
323
331
342
356
374
390
397
394
381
361
343
336
339
352
361
379
393
401
399
387
373
361
355
348
347
345
341
335
333
334
342
354
363
366
363
359
351
345
344
346
350
357
358
356
351
349
347
357
377
402
426
438
434
415
389
366
357
350
355
365
371
376
382
385
392
398
397
389
378
365
356
350
350
352
350
344
335
334
333
335
343
356
370
382
389
402
419
436
455
471
479
476
458
421
369
316
280
262
264
271
291
312
330
339
341
338
336
338
344
352
360
365
370
374
371
367
363
357
350
344
339
332
330
328
329
329
330
324
321
321
327
335
339
345
352
361
371
382
390
390
384
376
372
364
356
353
353
352
353
356
360
365
368
369
369
369
365
358
348
337
329
327
331
336
349
359
369
377
383
384
382
378
373
366
355
342
331
327
330
341
357
376
395
412
420
428
432
427
418
406
392
379
367
361
364
371
385
397
404
403
403
400
399
396
396
394
392
386
378
366
355
347
339
336
338
342
347
353
360
363
366
367
365
360
352
338
322
314
302
294
292
297
308
323
336
344
348
346
340
334
323
315
303
292
281
274
270
271
274
283
295
313
329
340
349
355
360
365
367
362
356
350
347
346
347
350
353
351
352
353
353
353
351
348
344
341
335
330
327
326
322
322
323
325
327
327
326
323
320
319
320
323
329
331
335
331
326
321
317
316
318
321
322
325
329
333
332
330
323
319
315
316
319
327
339
349
357
361
363
361
358
355
351
345
339
332
327
323
321
322
326
331
336
342
346
352
356
357
357
354
349
346
342
338
334
328
322
318
312
310
308
313
323
339
359
370
391
411
428
441
443
433
422
400
363
312
265
224
197
188
193
204
218
231
241
249
252
255
256
260
265
273
280
289
296
301
303
301
296
292
289
285
284
285
287
287
289
290
292
293
296
299
302
306
305
306
306
307
303
306
306
307
308
311
313
316
319
320
321
322
324
320
319
317
317
319
322
324
331
336
338
339
340
338
340
342
343
346
349
353
354
357
359
363
362
361
360
360
360
361
362
363
365
368
370
373
375
376
379
380
380
381
381
381
380
380
379
380
379
379
380
381
379
379
378
380
376
374
373
372
370
367
367
365
363
361
358
355
355
355
349
349
346
344
343
341
341
341
341
340
340
339
338
338
337
335
333
332
331
330
328
326
325
325
327
329
331
333
335
336
338
338
338
337
336
336
337
335
334
333
331
329
327
327
329
332
335
337
338
337
334
331
327
324
325
325
324
323
321
319
318
315
314
312
309
308
307
305
305
305
309
308
309
309
309
309
310
313
312
314
311
310
310
311
310
313
316
317
319
320
319
316
312
311
312
314
317
320
323
326
328
329
330
330
331
331
333
335
337
339
339
339
338
338
336
335
335
333
331
328
325
324
321
320
318
316
314
311
308
306
304
302
299
294
291
288
288
294
306
320
338
360
373
399
420
432
434
426
411
381
336
288
240
211
202
211
230
252
274
293
307
319
328
335
337
340
340
339
338
335
336
336
336
335
334
334
333
333
332
331
332
332
333
335
338
340
342
343
345
345
345
344
345
344
346
346
346
344
342
342
344
345
347
349
352
355
357
358
359
359
358
353
346
342
340
340
345
352
359
367
372
378
382
384
384
385
386
387
386
385
385
385
386
388
392
398
402
404
405
405
403
403
404
405
407
410
414
417
419
420
417
416
414
411
410
409
408
408
408
408
408
406
406
404
404
403
404
401
400
396
393
385
375
363
346
336
327
321
320
325
329
334
339
342
343
342
342
341
341
341
341
342
343
345
345
346
346
349
349
350
350
350
350
348
344
336
327
319
317
322
330
341
351
357
362
366
365
366
365
364
362
360
359
356
355
354
354
355
355
355
356
357
359
359
359
356
353
351
349
346
343
338
333
329
327
326
328
329
334
339
343
347
349
349
347
345
343
340
337
335
338
340
345
350
355
356
357
356
354
351
348
348
349
350
352
356
354
355
352
350
348
348
348
352
352
352
352
351
349
347
347
349
354
360
367
371
372
374
374
374
373
372
371
369
367
366
362
358
354
352
351
352
361
377
395
418
439
461
477
484
482
474
458
433
393
340
284
238
210
204
214
234
259
281
303
322
338
350
358
360
359
358
354
351
349
347
344
343
341
340
338
341
344
346
347
348
348
347
346
343
341
338
339
338
340
345
349
353
356
359
358
357
355
354
354
355
354
355
355
356
356
355
353
351
351
351
352
353
354
353
354
356
357
359
360
361
363
364
365
369
375
377
382
387
392
394
398
401
403
405
406
406
402
402
399
399
400
401
399
400
399
399
398
397
396
395
394
392
390
389
388
386
383
381
379
377
374
372
369
368
366
365
364
364
362
360
357
355
353
350
346
344
343
343
342
340
340
339
339
338
339
336
336
336
335
333
333
333
336
337
339
339
339
339
335
331
329
327
327
325
326
326
326
324
323
322
323
325
329
333
337
338
340
340
338
335
330
326
325
325
329
333
336
337
336
336
336
338
339
339
339
340
337
334
331
329
323
322
321
320
320
321
321
325
328
331
334
334
334
328
325
321
319
318
320
324
330
335
338
340
341
340
339
337
336
335
334
333
332
331
330
326
322
320
318
318
317
317
321
321
323
326
329
330
327
322
318
312
309
309
312
318
325
333
337
337
340
339
338
338
335
333
331
329
326
327
330
339
355
375
398
421
444
462
471
469
460
450
423
377
312
242
184
151
143
157
183
214
245
273
296
316
331
340
340
338
334
329
327
324
323
326
332
336
342
348
354
354
353
355
351
349
345
345
344
345
347
351
355
359
359
360
358
354
350
350
348
350
354
360
365
369
368
367
364
362
363
365
369
371
374
375
379
381
383
385
386
388
389
389
386
384
383
382
383
384
386
388
390
392
392
393
394
398
404
409
414
418
420
420
418
415
413
411
411
409
409
407
407
404
407
408
408
406
405
402
398
395
389
385
381
381
379
376
375
374
374
375
376
376
376
373
370
365
361
357
354
352
352
354
354
353
351
348
345
342
339
337
337
339
338
336
332
328
327
326
326
330
333
337
340
341
342
342
344
343
343
340
336
333
332
332
334
336
338
340
340
338
339
339
338
337
334
330
328
326
327
329
332
337
338
342
344
344
341
337
334
331
330
329
329
332
338
347
355
358
360
357
351
343
334
328
324
322
321
319
315
312
308
309
308
313
319
321
322
323
326
328
331
331
333
335
337
336
336
335
335
333
331
328
326
324
322
318
313
312
313
317
322
329
334
337
339
342
344
346
349
354
355
356
354
351
347
342
338
336
332
335
343
358
377
396
420
442
461
471
479
479
471
453
419
368
306
252
233
214
219
240
267
296
321
340
353
366
371
375
377
377
376
374
374
372
369
365
362
357
355
353
350
349
348
350
355
360
369
381
390
398
398
396
391
387
385
385
386
387
389
390
391
394
402
411
417
414
406
396
386
377
369
367
369
375
385
393
403
411
418
424
424
426
428
430
433
435
432
429
426
424
424
423
422
418
419
422
421
416
410
406
404
404
404
405
415
423
434
443
448
449
447
443
436
431
427
424
424
424
422
419
414
410
406
409
412
412
407
403
395
389
384
377
374
377
384
392
397
402
405
407
410
409
402
393
389
381
376
374
371
376
379
380
382
386
387
387
385
381
376
372
376
385
400
413
417
413
409
396
380
369
366
368
376
386
403
418
428
428
417
403
390
382
381
385
392
400
400
397
386
370
358
353
359
368
377
386
392
392
390
385
381
376
371
364
358
353
350
350
351
357
366
375
384
391
396
398
390
384
378
375
377
382
386
385
381
375
367
359
351
346
346
350
357
363
368
372
375
377
376
371
361
347
329
311
294
288
289
299
317
340
363
373
386
390
389
383
371
358
347
338
341
355
380
413
446
481
512
531
532
520
499
470
456
422
381
336
292
253
219
188
161
147
146
163
196
243
293
342
379
399
397
375
345
320
309
295
291
299
318
347
379
412
439
458
469
472
465
445
416
380
347
324
314
320
336
346
370
394
413
420
416
398
375
351
334
332
351
379
415
447
468
472
464
448
428
409
401
389
381
384
388
395
399
401
398
390
378
361
346
336
337
352
376
411
446
474
491
504
507
503
489
472
456
445
438
438
443
446
446
437
420
403
391
390
400
412
423
428
427
425
416
406
397
393
399
416
438
454
460
449
428
405
382
357
343
329
318
315
322
334
342
362
384
402
412
407
393
372
354
346
343
349
355
363
369
373
378
376
375
375
373
371
368
356
342
324
310
306
312
327
350
371
388
404
415
420
422
419
411
401
387
372
359
354
349
347
343
335
329
324
323
330
340
351
361
362
356
342
327
315
309
310
317
325
329
333
333
336
347
365
382
394
394
382
363
345
329
317
308
303
298
298
303
313
318
322
320
311
301
294
289
283
280
275
275
271
271
274
284
293
302
311
319
327
333
336
337
336
333
327
317
304
293
286
286
292
302
310
316
322
331
343
360
375
389
397
395
383
376
361
348
331
306
277
251
237
237
245
260
272
286
297
305
310
315
319
320
318
311
305
303
304
310
315
317
310
298
285
273
268
270
279
292
306
319
325
322
315
304
293
286
284
282
282
285
295
314
338
357
368
369
362
351
339
329
323
320
321
325
331
336
336
337
334
331
324
306
286
264
250
244
251
268
294
319
345
369
393
406
413
414
408
397
382
375
362
351
344
340
340
345
350
355
359
359
358
352
343
334
328
328
335
348
364
377
383
389
392
385
377
366
354
344
337
331
325
321
317
314
311
310
310
316
326
336
344
348
350
345
336
324
313
305
297
298
301
305
310
312
314
315
316
316
317
319
318
310
303
299
293
292
297
307
319
331
344
355
362
364
363
359
355
353
350
348
344
341
339
339
340
342
350
349
347
341
334
322
312
304
299
295
296
298
298
296
294
292
289
285
279
276
267
256
246
240
235
237
244
254
263
273
282
289
296
302
310
312
312
309
306
302
299
299
302
307
314
321
327
329
327
322
317
314
313
312
312
311
312
314
317
320
321
323
323
321
317
316
316
318
324
333
344
352
356
352
348
343
340
334
339
348
361
378
398
410
433
453
462
461
450
434
403
357
305
259
227
215
220
237
259
281
302
319
334
343
348
350
349
344
339
334
332
331
332
334
335
335
333
332
333
336
337
339
341
342
343
343
343
343
344
341
338
335
335
333
333
335
337
340
344
342
341
338
336
333
332
330
335
339
344
349
352
353
352
351
352
354
355
358
357
357
357
357
358
358
360
364
367
374
377
379
380
383
385
384
386
387
388
390
391
393
393
393
395
398
401
403
404
403
401
398
397
395
395
396
397
396
395
392
390
387
385
381
380
377
374
373
372
369
367
364
361
360
356
357
353
352
352
352
350
348
344
340
336
333
332
331
334
334
337
340
343
346
350
352
355
356
355
353
352
349
351
353
356
352
354
355
356
356
357
360
363
366
369
371
373
375
375
376
376
376
375
372
367
361
353
347
344
346
353
362
371
377
383
384
385
386
388
389
393
393
394
394
394
393
390
388
382
376
371
367
365
362
359
357
354
353
353
354
354
356
357
357
355
352
348
343
336
330
324
321
320
319
322
325
323
325
326
328
330
333
336
338
337
332
324
316
310
307
308
312
320
328
334
337
336
338
335
333
330
328
324
326
327
334
345
364
387
414
440
459
470
466
455
437
401
350
290
235
195
179
187
196
224
257
289
316
337
352
360
363
361
356
353
352
352
352
354
355
355
352
352
350
349
347
341
340
338
336
337
340
343
347
351
353
356
357
358
357
357
353
350
347
344
344
342
340
338
337
339
341
342
342
340
338
333
331
330
331
335
340
344
349
352
354
357
358
360
364
367
370
369
369
369
368
372
376
383
392
400
405
409
411
410
407
410
407
408
408
408
408
410
411
410
410
410
410
409
408
406
404
401
399
397
395
392
386
380
376
364
355
354
358
362
368
371
372
368
364
358
354
353
356
358
362
363
363
362
360
357
356
353
350
347
345
344
341
340
337
333
330
326
323
322
324
328
331
334
336
336
337
337
337
337
336
335
334
334
335
338
342
342
346
345
346
343
343
343
343
343
341
343
343
342
342
342
342
341
339
337
337
340
344
349
354
358
360
361
362
363
365
367
368
371
372
374
375
377
377
376
375
376
377
376
370
366
362
360
360
361
360
360
359
358
356
355
354
353
353
353
357
355
355
353
353
351
349
348
347
344
346
345
344
341
342
343
342
342
341
339
337
336
335
335
335
335
338
338
339
340
340
340
337
337
334
330
330
331
335
344
363
380
396
416
436
454
464
465
456
430
382
320
255
205
180
180
192
217
247
262
292
317
340
358
369
373
372
366
360
352
344
339
334
331
328
326
325
325
325
326
325
325
325
325
326
327
328
329
329
329
329
332
333
336
342
347
352
355
358
360
362
362
364
367
371
375
378
379
380
381
384
389
392
398
402
405
407
409
410
411
412
413
414
415
415
416
418
420
422
424
428
431
435
439
442
445
447
449
451
450
448
446
445
444
444
443
442
441
441
441
441
440
439
438
435
432
430
427
425
423
420
417
415
413
411
409
410
407
404
399
394
387
384
381
377
374
371
370
371
372
370
370
368
367
366
366
366
366
365
364
361
357
354
350
347
347
346
346
348
351
354
355
355
355
357
356
355
356
356
356
355
355
354
353
352
351
350
349
347
347
345
344
342
344
347
349
351
352
353
354
355
355
353
352
352
351
351
352
351
348
348
348
348
349
349
348
349
350
351
352
351
352
348
345
343
345
346
350
353
355
356
355
355
352
353
350
350
350
351
351
352
351
351
350
347
345
344
342
341
340
340
342
340
341
342
343
345
346
348
350
347
348
347
344
344
339
339
340
340
343
346
348
348
345
343
341
341
340
348
361
380
404
429
454
474
480
486
480
472
454
418
363
298
238
197
181
184
202
229
260
291
320
347
368
379
383
383
379
373
371
369
367
365
364
362
360
359
357
357
360
361
363
366
368
370
373
373
372
371
369
367
365
365
361
361
361
363
366
369
371
373
375
375
374
370
365
363
363
366
368
372
380
385
391
396
399
400
401
401
402
404
407
410
411
413
414
413
411
406
402
401
400
402
406
408
406
406
404
404
404
406
410
415
418
420
423
428
434
440
448
454
457
458
456
451
446
439
435
428
424
421
416
411
409
411
412
413
411
404
395
385
379
373
373
374
375
375
376
372
369
367
366
367
368
370
373
374
376
377
378
380
378
373
368
367
363
357
352
350
351
355
360
365
368
369
368
364
361
359
359
362
364
364
362
358
353
349
345
343
343
346
349
353
356
355
350
351
345
340
337
336
337
338
335
335
333
329
328
324
324
326
329
333
336
335
332
327
323
321
320
318
317
315
313
311
312
317
324
327
332
334
335
333
330
328
327
328
330
332
333
335
334
333
331
328
327
324
323
324
326
324
332
339
346
351
351
349
345
342
338
336
332
330
331
336
342
348
352
353
353
351
348
343
338
338
342
352
369
389
409
431
454
475
489
490
482
467
442
402
346
290
247
236
227
238
259
281
297
311
320
327
330
340
352
366
374
376
370
366
366
368
375
386
398
402
410
407
392
375
364
362
371
387
403
419
428
431
420
402
380
360
350
345
348
351
355
357
357
354
351
346
342
341
345
349
354
356
354
350
345
347
353
360
370
379
384
385
386
386
385
387
388
392
393
394
395
395
394
400
408
421
423
413
397
383
375
376
381
385
394
401
406
406
399
385
369
358
349
348
354
366
380
390
393
387
377
366
362
361
360
368
382
394
402
403
399
392
384
377
368
360
353
345
344
346
350
353
357
361
363
364
368
373
376
377
371
364
356
347
340
336
333
332
334
340
348
356
365
373
378
374
370
367
358
350
346
345
347
348
346
340
326
310
293
278
270
272
282
299
321
347
374
398
406
424
428
421
403
375
350
331
321
321
327
341
356
372
383
387
384
371
356
342
336
334
335
339
346
351
352
353
352
351
349
350
347
345
337
331
326
320
314
306
294
281
274
273
276
288
309
332
355
369
373
364
348
326
305
286
272
264
264
276
296
320
341
356
359
360
357
349
343
341
347
360
376
392
411
431
453
475
493
501
499
485
452
400
343
320
286
275
284
310
343
379
407
421
423
418
412
412
411
407
395
379
370
372
374
379
383
386
388
387
384
382
380
381
382
378
373
362
350
338
335
336
341
349
358
367
378
393
402
418
428
431
426
418
409
397
385
372
361
354
348
348
358
370
383
392
399
403
401
398
390
381
373
371
377
390
400
408
410
418
427
435
439
434
423
410
399
396
401
414
426
430
439
442
444
438
436
437
441
445
445
442
437
425
414
399
383
365
360
364
373
384
388
391
386
377
369
363
359
361
364
370
378
388
395
397
392
390
387
385
380
375
368
364
359
361
363
367
368
368
367
365
366
368
368
369
363
358
354
356
361
375
396
414
427
431
434
431
418
402
385
370
356
344
337
336
342
355
373
389
402
411
413
409
401
389
383
373
369
374
383
397
409
414
411
403
392
379
370
367
367
370
373
375
376
379
379
379
382
386
390
391
391
390
387
383
375
368
359
352
348
353
365
381
393
398
396
391
384
383
383
385
389
392
391
387
383
379
373
369
367
364
362
363
368
373
375
376
374
373
372
373
374
372
373
377
382
389
390
388
384
381
380
387
400
421
447
469
485
493
495
494
490
473
438
391
341
306
287
284
292
307
325
342
353
363
369
375
380
384
386
386
383
380
371
363
356
351
348
344
345
346
351
360
367
372
375
378
382
385
390
393
396
395
396
397
397
399
404
408
407
405
400
393
386
386
387
394
402
406
407
406
404
402
402
402
405
410
417
419
422
423
423
421
417
417
415
417
422
429
438
449
459
468
473
475
473
473
472
471
469
467
464
461
458
456
454
451
447
442
436
431
426
421
417
415
416
417
418
417
415
410
399
388
376
366
353
342
330
317
306
300
299
304
308
318
325
331
332
336
338
339
341
344
347
349
349
348
346
344
342
340
339
339
342
347
351
354
357
358
359
359
358
356
354
354
353
352
352
351
351
351
352
352
351
350
352
350
352
352
353
354
353
353
353
353
352
353
355
360
361
363
364
364
360
358
357
357
358
359
359
357
355
355
354
355
358
355
355
355
356
357
358
359
358
358
359
361
360
359
358
359
360
361
362
363
362
362
360
359
358
355
355
351
348
345
344
341
340
339
338
337
336
334
332
332
330
329
329
328
327
326
325
324
323
321
319
317
315
313
312
313
312
313
314
314
314
313
311
308
306
305
306
310
321
334
353
374
397
423
442
453
453
444
428
401
359
309
259
239
210
203
208
223
242
261
279
293
304
311
316
316
313
308
301
293
286
281
279
280
279
281
281
281
283
283
282
280
279
278
278
282
282
284
287
289
291
293
294
296
296
297
299
302
306
309
313
316
319
321
322
321
321
321
321
322
324
322
323
323
323
325
327
328
333
336
340
344
346
348
348
349
350
352
353
355
357
359
361
363
365
366
366
369
367
365
364
363
361
360
358
356
354
352
348
346
342
338
332
330
326
320
313
304
299
296
296
298
301
303
306
309
312
312
314
314
314
314
316
318
317
317
319
319
319
314
313
312
308
303
300
297
294
293
293
296
299
303
305
304
304
303
299
298
297
297
298
298
299
303
308
310
315
315
316
314
314
315
314
312
309
307
306
305
305
306
308
313
315
317
321
321
323
321
320
319
318
318
316
315
316
315
315
314
315
314
314
315
315
313
314
315
317
320
321
322
324
327
329
332
335
336
338
339
341
344
347
349
352
354
354
354
354
352
351
349
347
345
344
344
343
341
338
329
322
313
305
298
293
294
298
299
301
303
306
309
311
315
319
321
321
318
317
316
315
315
315
315
315
317
319
321
324
325
325
325
323
322
321
320
324
331
343
354
367
391
420
454
481
497
502
497
476
434
375
312
284
244
226
225
238
257
278
296
312
326
335
341
343
341
337
334
332
331
331
333
334
335
338
342
346
349
351
352
353
354
355
354
353
349
348
346
345
341
338
335
332
331
331
331
333
341
347
353
357
359
360
359
362
364
365
365
365
367
364
365
366
369
372
376
379
382
385
386
387
387
389
388
389
389
390
387
385
383
384
387
391
394
403
412
419
420
421
414
407
400
397
396
398
401
404
407
408
409
410
410
409
408
407
405
406
403
402
401
400
398
395
393
391
387
383
381
376
373
369
366
362
358
355
353
351
349
348
345
344
341
341
340
340
341
342
343
343
343
341
342
341
339
334
325
316
312
314
319
329
335
343
350
354
357
358
358
355
357
358
359
357
361
363
364
366
366
368
370
374
382
391
395
398
391
380
367
356
348
346
346
348
349
348
345
341
339
338
341
344
348
350
350
349
349
349
349
349
348
347
348
348
349
349
352
355
358
361
364
366
367
367
363
359
358
355
354
351
349
347
345
344
344
344
345
343
348
351
355
357
359
360
361
361
361
360
360
359
360
362
362
364
363
362
362
360
358
355
353
352
351
349
348
350
350
352
353
353
351
349
345
343
342
341
341
341
341
342
340
337
336
338
336
338
340
341
341
341
341
342
344
345
347
349
354
355
356
355
352
348
344
342
343
351
368
390
417
442
470
492
498
501
494
477
452
412
359
299
247
210
197
204
224
251
276
301
323
342
357
367
372
371
370
368
364
362
360
360
359
359
360
362
363
364
365
365
366
368
369
370
372
371
370
366
365
361
359
360
362
366
370
372
376
375
375
375
373
372
371
371
371
371
371
371
371
372
372
374
375
376
374
373
371
367
365
366
372
381
390
399
407
412
413
413
412
412
411
411
413
416
421
426
430
435
439
443
444
445
446
445
444
442
438
435
432
430
429
426
423
420
416
412
410
405
401
397
394
391
388
388
389
389
390
389
388
383
380
377
376
375
373
371
369
367
365
363
361
360
356
356
356
356
357
357
358
359
356
355
353
351
350
348
347
347
347
345
348
349
350
350
350
349
347
345
340
336
333
332
331
333
335
339
343
349
354
357
359
358
356
354
352
351
350
349
348
346
345
345
344
345
346
346
347
347
347
346
344
344
341
339
338
336
335
334
336
338
336
338
340
342
341
342
342
341
341
341
341
341
342
342
341
341
341
337
333
330
328
328
329
330
332
333
335
336
335
335
331
330
329
329
331
333
336
338
339
340
341
342
344
342
342
341
341
341
341
342
344
343
342
341
340
339
337
337
338
340
341
342
342
342
341
340
340
341
342
343
344
344
346
344
341
342
341
342
343
342
342
341
339
335
332
329
327
329
337
354
375
400
413
441
465
481
484
478
462
442
403
346
283
227
186
172
180
201
230
260
290
313
333
348
355
358
360
359
357
354
350
347
344
342
342
344
347
351
352
354
356
355
353
350
348
346
343
341
343
348
354
358
360
361
361
359
358
359
361
363
365
367
368
368
368
365
363
361
358
361
365
371
378
382
383
387
386
385
383
381
381
379
376
372
367
363
360
358
357
357
361
369
380
394
408
423
434
441
443
444
444
443
441
436
428
421
413
409
405
403
401
400
401
400
401
402
403
404
404
404
405
406
406
400
398
393
389
386
387
385
385
383
380
377
374
373
369
367
365
365
365
364
363
362
362
362
361
361
360
360
359
358
358
357
357
358
358
360
363
365
365
367
369
366
363
363
361
359
358
355
352
348
346
345
346
350
355
358
360
358
357
357
357
360
359
358
358
357
356
354
354
348
347
344
341
336
333
332
331
331
330
330
331
332
331
330
329
330
329
327
327
325
324
324
327
331
333
337
340
344
347
346
348
347
347
347
348
347
346
348
346
345
340
340
336
337
341
345
351
357
361
363
365
365
366
367
370
371
371
368
366
363
361
359
359
359
358
354
352
349
350
354
358
365
369
372
375
377
379
383
387
392
389
382
372
362
354
350
353
358
363
365
367
367
364
359
356
355
359
368
387
409
435
462
488
508
520
522
515
498
472
453
404
345
291
253
236
235
249
272
300
325
345
359
370
381
393
406
417
426
441
459
466
473
473
467
456
439
421
401
384
370
357
353
352
356
356
357
355
352
351
353
355
359
360
364
369
373
376
378
381
386
389
387
380
371
363
356
354
353
355
359
361
365
370
373
379
388
397
404
409
409
412
411
416
417
419
422
427
431
431
424
417
408
398
388
383
373
366
366
374
387
408
432
453
468
474
471
460
446
429
416
408
406
411
422
436
450
457
466
475
479
480
470
458
443
425
407
394
390
391
399
413
431
449
465
471
463
446
435
416
401
389
380
374
374
376
379
382
386
393
400
405
408
405
396
385
376
368
363
361
359
358
358
362
368
373
379
386
396
405
413
417
415
411
405
397
391
381
373
370
373
377
388
399
402
400
395
388
383
381
379
374
372
372
367
363
359
361
371
386
403
416
420
415
401
380
359
345
341
346
355
358
356
347
335
324
320
325
338
353
366
373
375
374
368
363
361
362
367
371
369
363
356
350
348
346
346
344
343
343
341
338
336
336
340
346
359
375
391
405
406
401
390
375
360
348
337
329
321
311
295
278
255
229
211
214
224
260
309
363
410
446
470
485
493
497
495
490
483
475
458
422
367
308
265
247
253
262
288
317
342
357
364
366
370
377
385
390
390
391
386
377
369
367
375
380
382
381
375
367
347
325
305
293
292
301
321
349
376
404
425
438
440
436
428
416
399
380
366
359
359
364
375
391
409
418
418
411
396
375
356
340
329
324
326
337
354
374
390
399
400
399
395
395
400
409
417
421
418
412
405
401
405
411
415
412
407
400
398
400
407
415
424
427
431
429
426
427
424
424
423
423
422
422
424
427
427
423
416
409
399
394
395
397
399
401
399
395
387
381
379
383
390
391
383
368
348
327
317
314
322
338
357
373
385
390
393
393
392
389
383
380
378
374
370
367
364
362
364
370
376
381
385
388
390
389
386
385
382
377
371
364
359
356
356
363
367
370
365
360
352
346
347
353
364
374
379
380
379
370
360
349
343
334
331
331
334
335
335
336
341
351
362
371
376
371
364
355
349
348
343
340
339
335
331
329
329
331
334
339
340
340
339
335
333
339
344
348
353
356
355
351
344
333
323
316
311
312
318
324
333
337
341
346
346
347
347
348
347
345
340
335
333
327
320
314
308
303
299
297
299
299
300
300
295
286
277
270
268
272
286
306
329
341
356
365
368
361
353
348
349
356
371
390
411
431
442
442
436
426
410
377
331
281
237
220
201
201
216
241
267
291
307
319
327
336
346
354
361
366
366
363
357
353
349
349
346
348
348
349
353
354
351
346
338
330
322
318
315
315
318
323
326
328
330
331
332
334
338
345
356
371
386
395
395
389
376
364
350
336
326
320
318
321
328
338
348
357
366
369
374
377
377
373
367
364
362
364
372
384
395
405
410
416
419
420
419
415
411
408
407
406
407
409
411
411
410
409
409
409
409
410
412
416
420
426
427
424
419
412
408
407
405
400
393
382
373
367
360
359
360
362
364
365
363
363
360
356
351
346
338
330
324
322
320
322
328
330
329
323
313
303
297
293
291
291
294
299
303
306
307
306
299
292
285
279
273
270
270
273
280
288
295
304
312
317
320
317
314
311
309
306
305
305
306
306
308
309
310
311
312
314
318
325
328
331
335
338
339
338
335
332
327
324
325
327
327
329
328
326
324
321
319
320
320
321
324
327
330
333
334
336
336
336
336
338
340
341
342
341
339
337
336
334
333
332
334
335
338
342
345
347
348
349
352
351
352
351
349
349
346
345
344
344
343
343
343
343
342
341
339
338
335
332
331
332
335
339
341
344
348
349
351
353
355
352
350
349
348
347
345
345
342
340
339
337
340
349
364
384
407
433
446
469
481
484
477
461
433
389
335
282
244
225
228
242
262
281
300
317
332
347
362
366
372
372
369
366
363
362
360
360
360
359
358
357
358
358
359
359
358
358
357
357
358
359
360
361
361
361
361
360
359
359
358
357
357
355
358
358
357
357
357
359
362
366
368
372
375
380
382
385
388
390
392
393
392
390
388
387
387
389
392
390
389
386
388
391
392
395
397
398
399
401
404
408
410
412
414
412
411
408
406
404
404
405
404
405
402
403
402
401
402
398
394
390
387
383
380
378
376
375
372
369
367
362
360
359
358
357
356
355
352
349
347
345
342
341
339
339
340
340
340
340
341
342
343
345
348
351
356
356
358
361
361
360
358
358
357
356
355
355
353
352
349
346
345
346
349
353
357
360
361
361
362
361
360
359
359
359
359
358
357
357
358
356
354
354
353
352
351
349
348
347
347
344
343
342
341
341
339
338
337
338
339
340
338
336
334
332
330
327
325
323
322
321
320
321
322
322
324
325
325
324
326
328
329
330
331
332
329
331
330
330
329
330
328
328
329
332
335
338
341
344
346
347
348
347
347
344
346
346
347
348
347
345
343
342
340
338
336
334
333
335
335
339
338
338
338
338
337
337
338
339
340
341
342
340
341
340
341
343
344
344
344
347
345
344
343
340
339
336
339
349
365
387
409
436
462
484
495
496
492
480
456
416
359
294
240
203
191
200
222
248
274
298
320
338
354
363
368
364
364
360
356
353
351
350
350
350
350
354
354
356
355
356
356
356
354
358
359
361
363
363
363
363
362
360
359
359
360
361
364
366
369
370
369
368
366
362
358
351
346
342
338
339
340
346
353
360
367
373
380
386
393
398
401
402
403
403
402
401
404
406
410
415
418
419
421
425
426
428
430
431
432
433
432
431
430
429
430
432
431
431
430
430
428
429
429
428
426
423
421
420
414
415
413
412
409
404
400
396
390
386
382
378
375
373
370
369
369
367
364
366
366
365
365
364
364
364
363
361
360
358
358
358
359
359
360
361
362
364
365
366
367
368
371
373
372
369
366
365
362
363
366
371
376
380
383
384
385
386
387
388
391
389
388
386
386
382
381
380
378
377
376
375
374
371
371
372
372
372
372
373
374
375
375
375
375
375
375
376
379
380
381
379
378
374
369
364
362
359
359
360
361
365
367
369
370
372
375
372
371
372
372
373
374
374
373
374
369
366
365
364
361
364
365
366
367
367
366
364
363
362
362
362
364
367
370
373
376
377
378
378
379
376
378
377
376
376
375
376
376
375
373
369
367
366
366
365
366
366
366
367
368
369
369
369
369
368
367
366
365
363
362
361
359
359
360
360
360
360
361
361
359
358
356
356
353
354
364
380
403
428
455
482
502
512
509
497
479
445
393
327
265
215
191
191
206
229
255
268
292
315
337
357
374
386
389
391
388
385
381
377
374
373
373
373
375
375
375
376
377
378
381
379
378
379
379
380
382
381
379
378
376
376
378
381
383
385
386
386
385
384
382
380
379
378
380
383
389
393
397
399
400
399
397
396
395
396
397
398
399
401
402
402
403
402
405
406
409
412
414
417
421
425
426
432
434
436
435
436
436
436
436
438
439
441
445
444
443
442
438
433
427
424
421
419
417
417
417
414
412
410
409
408
405
403
401
399
396
394
391
389
387
384
381
377
375
370
367
364
363
361
362
363
364
366
366
368
367
366
365
365
364
363
359
357
355
355
356
359
361
364
363
367
367
366
362
361
360
358
355
353
352
352
353
353
353
351
349
346
345
346
346
347
349
349
351
351
351
351
353
358
359
365
367
364
359
354
350
347
347
347
349
351
352
353
353
353
355
353
351
349
345
342
342
344
348
352
356
360
361
363
360
358
356
353
350
348
347
346
346
346
347
349
353
354
356
358
359
359
358
356
353
351
349
350
352
353
354
353
352
352
352
354
358
364
369
374
377
377
375
371
365
359
353
347
344
343
345
347
351
355
359
363
364
362
358
352
346
343
342
341
347
351
357
362
366
367
365
363
361
359
358
357
357
358
360
367
378
394
412
433
458
480
494
497
492
477
455
418
363
302
252
222
211
217
235
246
272
300
322
339
356
364
365
367
368
368
370
372
374
375
375
373
372
373
374
378
383
385
387
386
383
381
379
378
375
371
366
364
359
355
354
357
360
362
363
364
364
366
368
372
375
374
373
372
371
372
375
379
382
385
388
389
389
385
385
383
381
375
368
365
360
358
363
372
384
393
398
399
398
397
396
396
399
401
403
402
400
398
399
400
403
405
411
412
415
413
410
405
399
395
390
385
383
383
386
388
388
387
386
384
383
383
384
388
393
398
399
397
393
384
378
373
371
371
372
375
378
382
383
381
376
368
366
365
362
363
361
361
361
361
359
358
354
349
347
347
351
356
360
362
363
363
363
366
372
375
384
394
401
407
408
400
393
383
373
367
365
367
374
381
385
386
384
377
368
358
354
347
343
342
345
351
359
365
373
378
383
387
390
392
390
385
374
360
348
339
332
331
329
338
343
353
363
375
378
380
373
363
351
348
348
351
356
362
369
374
381
389
397
401
408
411
411
401
391
382
376
376
380
385
389
392
395
400
405
407
407
405
402
397
395
391
389
390
392
395
396
393
386
376
368
359
357
360
365
371
375
378
382
382
384
385
386
387
390
395
404
415
430
442
448
449
446
443
438
421
386
341
294
256
238
237
251
257
272
286
294
302
314
326
343
358
368
375
380
382
380
376
371
367
362
357
348
339
335
328
330
339
349
358
366
372
380
389
399
406
413
418
424
420
412
396
378
361
352
350
357
373
392
419
439
451
450
441
421
393
365
341
329
332
347
373
401
427
446
455
455
452
441
426
411
396
383
374
370
371
376
379
384
391
400
411
423
439
455
470
478
475
468
448
422
404
392
389
396
413
438
464
488
504
509
501
482
460
434
411
391
370
358
355
354
362
374
383
390
395
395
395
391
387
380
372
363
357
356
354
354
355
355
352
348
346
339
334
330
327
327
328
334
341
353
365
378
390
402
412
421
422
418
410
397
382
374
364
361
368
378
387
388
382
370
357
340
323
311
304
305
314
328
340
351
358
367
372
383
395
402
401
391
375
355
339
331
335
351
377
405
427
433
430
419
408
398
391
387
385
382
377
369
358
346
328
315
308
313
324
347
375
405
427
435
426
411
392
381
374
370
368
368
371
376
377
382
389
397
402
407
408
403
390
368
345
327
319
322
328
337
341
349
362
374
386
396
400
394
381
364
350
339
336
339
345
353
359
358
356
357
364
375
381
394
406
414
419
423
428
439
450
461
468
469
461
437
394
344
302
278
269
268
267
267
267
272
282
300
327
355
385
410
427
433
428
410
383
355
333
323
327
343
365
387
395
404
401
390
376
362
349
341
343
353
369
383
396
406
413
413
409
398
384
372
366
366
368
376
388
399
408
419
426
433
432
425
416
413
410
402
392
376
359
345
331
327
335
345
372
407
436
451
451
439
423
409
401
400
399
395
386
372
368
372
385
412
440
461
467
468
456
440
425
416
411
412
419
426
431
429
421
409
393
376
363
358
357
363
376
393
398
408
409
403
395
387
378
367
359
358
362
376
388
390
387
380
370
367
370
376
382
382
379
369
353
337
325
318
319
328
343
360
375
383
381
369
355
348
352
367
395
423
432
442
441
430
415
398
381
366
353
346
344
347
353
355
355
353
351
352
356
364
376
389
396
407
414
418
416
416
412
404
395
382
370
363
363
371
381
389
396
403
401
401
402
404
408
413
417
417
414
412
413
422
436
447
450
443
426
407
388
373
361
353
351
355
359
371
386
404
419
433
442
451
458
455
450
441
430
420
413
408
406
407
407
404
398
388
383
373
368
367
372
382
393
402
409
413
412
416
419
425
430
432
431
425
416
402
385
377
365
366
383
413
454
499
541
571
586
584
569
536
481
414
350
304
280
273
284
307
317
348
381
411
432
447
454
453
449
442
432
429
425
416
403
390
380
377
384
401
420
434
440
444
446
447
447
442
436
429
422
417
415
416
418
421
420
421
424
434
445
456
464
466
463
453
441
432
428
428
430
431
430
423
418
416
418
420
422
426
433
440
448
457
462
471
476
479
481
480
478
477
476
478
479
480
479
475
468
465
463
463
465
466
466
467
468
471
475
477
477
477
480
484
491
500
505
507
503
496
486
476
466
457
449
439
427
423
414
408
409
416
427
436
438
434
427
418
407
394
380
366
357
348
348
348
348
345
342
335
326
319
314
312
315
320
326
334
339
343
347
348
347
346
344
343
343
348
352
358
365
375
386
394
397
399
400
403
410
416
421
423
422
418
414
411
409
407
406
403
408
408
411
414
416
419
421
424
425
426
428
427
427
426
426
424
422
420
418
412
406
402
401
403
411
425
439
452
461
464
465
462
458
454
451
450
451
452
452
452
454
451
449
448
447
446
444
440
443
441
443
446
448
449
454
455
456
455
451
446
441
437
436
439
442
444
442
438
434
431
433
437
444
451
456
459
460
458
455
449
442
434
428
421
417
418
419
424
428
431
432
429
422
416
414
417
424
431
437
439
440
436
432
429
430
442
461
484
497
524
548
564
570
565
550
529
497
450
397
348
317
305
312
328
346
369
386
399
407
409
412
412
411
412
411
412
413
412
410
406
404
402
402
401
403
402
405
405
407
409
410
412
414
415
415
415
417
413
412
411
411
412
414
417
420
423
422
422
422
423
422
421
421
418
414
409
404
397
395
396
398
399
400
402
404
405
408
410
411
411
413
416
419
422
426
429
433
437
442
448
452
457
459
459
457
454
450
446
443
440
438
435
432
428
426
422
418
417
415
410
408
405
401
397
393
388
384
381
378
375
373
371
368
366
364
362
362
361
360
360
359
357
354
349
345
338
335
336
340
346
351
353
354
351
345
340
336
335
335
337
341
349
352
355
356
356
354
350
347
344
342
340
337
335
333
333
334
336
338
339
340
342
338
335
331
327
324
322
318
318
316
319
322
327
330
331
330
328
326
327
326
327
329
331
332
332
332
331
329
327
325
323
322
321
321
322
323
321
323
324
325
326
327
327
326
327
324
322
320
318
314
312
312
311
312
312
314
315
316
317
317
316
315
313
311
308
305
300
297
292
289
286
283
282
280
280
281
282
284
285
283
282
281
283
282
289
294
301
305
308
310
310
309
308
309
310
311
314
317
319
321
323
324
326
327
327
328
328
327
324
323
316
311
307
304
303
305
309
319
334
353
374
394
414
431
439
441
433
420
399
367
316
258
204
167
149
155
173
197
223
245
264
277
286
289
290
288
289
287
287
288
288
289
287
286
285
283
281
280
280
279
280
280
280
280
279
277
274
271
270
270
273
278
284
289
293
295
297
295
293
292
291
292
293
295
296
297
296
296
297
298
299
301
302
303
305
307
311
313
315
317
317
318
318
323
324
328
331
334
337
340
343
344
348
352
355
357
358
360
360
359
358
359
360
362
363
362
361
359
355
352
349
347
344
341
339
336
334
332
329
326
324
318
314
309
306
301
297
294
291
288
283
280
277
276
274
272
269
266
263
261
260
260
260
263
263
264
265
265
264
263
264
264
260
260
260
259
259
260
261
263
265
266
268
268
269
270
271
270
270
271
271
270
274
275
279
283
284
285
285
285
286
285
285
285
285
285
285
283
282
281
281
282
284
287
289
291
291
290
291
291
291
290
290
291
291
292
291
291
290
291
290
290
290
291
290
289
288
287
286
286
286
286
288
286
288
290
290
290
289
289
286
284
282
280
280
280
282
285
287
289
289
290
290
289
288
285
281
277
277
278
282
288
297
302
309
311
311
308
305
302
300
299
299
297
296
294
289
285
282
280
281
282
285
287
289
290
291
294
294
294
293
290
284
283
279
277
275
276
275
279
284
291
298
304
308
309
307
303
297
293
290
292
301
316
325
347
372
397
420
435
438
432
418
396
358
302
239
179
140
126
134
156
188
222
253
267
293
313
326
331
332
328
323
320
316
314
314
315
314
315
316
319
321
323
324
324
323
323
324
321
322
322
325
326
323
320
317
322
325
324
326
327
329
333
336
339
339
338
337
338
337
338
342
344
345
345
343
342
343
346
351
355
357
355
354
355
358
362
364
363
365
367
372
378
384
392
392
393
393
393
394
395
396
395
392
391
385
382
382
386
388
387
385
382
379
377
378
381
389
394
398
400
399
397
394
395
393
390
386
381
375
366
364
358
353
348
342
338
336
334
334
333
332
329
327
323
323
322
323
324
328
332
337
339
343
348
351
352
353
352
352
351
348
346
346
345
345
344
343
340
338
335
334
336
335
336
339
340
340
339
336
330
324
318
312
310
310
314
319
324
327
331
334
338
345
350
352
354
352
347
343
340
337
334
328
325
320
314
308
304
305
308
309
306
301
296
295
297
299
305
311
316
321
325
331
335
336
336
334
333
331
331
332
332
331
327
325
325
326
326
325
324
321
319
314
311
312
313
318
324
330
335
337
337
336
332
328
325
325
323
322
320
318
317
316
317
315
315
315
316
316
314
309
308
306
304
303
302
301
302
304
305
307
307
305
300
296
294
293
295
299
304
310
318
326
332
335
336
331
327
326
333
345
353
375
400
426
450
467
472
466
452
423
375
315
246
194
169
168
186
217
252
284
306
313
322
327
331
332
334
337
343
349
357
363
364
359
351
339
330
325
335
347
362
375
382
391
395
395
390
382
374
367
365
365
368
372
378
384
392
396
398
395
392
388
378
368
362
351
344
336
338
343
353
371
393
418
438
451
454
451
447
443
435
428
418
410
404
403
404
409
415
421
428
435
439
441
438
435
434
431
431
433
436
438
440
444
450
455
458
463
467
470
471
467
462
456
450
446
444
452
462
478
487
484
471
453
435
418
404
392
387
378
370
363
354
346
344
348
361
380
396
406
405
402
395
386
377
369
363
360
355
353
348
343
336
331
329
331
335
339
345
354
365
373
376
372
364
347
328
311
297
293
293
298
307
319
334
344
354
362
365
367
364
359
355
353
358
363
369
371
370
366
358
350
348
345
347
350
355
360
365
368
370
373
378
385
388
387
382
375
362
354
352
358
368
375
385
389
385
374
360
350
347
348
357
365
369
368
369
371
372
367
360
345
329
318
314
312
318
331
347
359
368
373
375
373
368
361
354
349
344
340
334
327
326
331
345
363
372
389
399
404
406
405
401
390
381
367
352
340
334
330
330
332
340
353
371
393
415
428
453
473
485
489
485
474
455
422
371
319
273
243
232
236
250
265
284
300
314
328
332
346
356
365
366
365
361
354
340
325
315
309
307
310
316
333
349
364
372
374
366
351
344
334
334
342
359
377
393
401
401
397
392
383
379
375
371
367
360
354
348
344
343
342
340
330
320
308
303
307
320
340
362
380
391
399
404
403
400
396
390
387
390
395
396
393
384
376
374
384
400
419
435
448
459
467
468
466
462
456
446
441
436
431
429
429
430
434
439
442
442
434
419
398
381
368
366
377
399
424
447
460
464
457
443
427
407
399
386
370
363
364
372
381
393
407
419
427
433
436
435
428
420
407
396
382
365
350
344
344
350
359
364
352
333
321
316
320
336
359
376
387
391
392
384
374
359
346
334
335
337
339
338
337
336
334
337
341
346
347
343
337
332
331
336
347
362
380
399
417
429
435
437
435
422
407
390
371
353
336
325
320
324
335
356
380
402
415
419
415
408
400
399
401
406
411
411
411
408
405
397
388
380
375
370
372
380
391
402
411
415
414
407
397
391
381
373
362
354
348
345
345
347
347
346
346
345
346
349
349
351
351
350
348
348
349
349
347
344
341
339
339
338
342
345
349
353
367
384
404
427
452
475
489
494
493
490
481
463
432
387
331
279
249
238
244
261
287
312
329
340
345
344
342
338
338
338
339
343
352
360
366
368
372
378
378
379
379
378
374
371
368
364
360
357
357
356
357
359
361
367
372
374
375
370
362
351
341
333
332
336
344
356
368
377
387
398
409
420
427
430
432
430
425
420
415
413
416
425
441
453
457
454
448
443
439
442
453
464
478
490
495
495
489
487
482
481
484
486
486
482
472
463
461
462
465
470
471
471
468
462
454
446
441
432
423
414
406
400
394
384
374
364
354
347
344
342
344
348
351
354
355
354
353
353
350
340
325
313
299
284
273
267
266
270
279
289
301
311
318
320
321
323
324
327
330
333
336
342
348
354
360
366
368
369
367
363
358
355
353
354
356
360
364
368
368
366
364
363
363
362
364
368
372
375
377
379
381
380
383
385
389
388
390
386
382
378
375
374
374
375
378
381
383
383
379
378
375
372
371
371
372
373
375
376
377
379
381
382
384
384
383
384
384
384
384
383
382
379
375
371
362
355
352
355
360
370
380
388
392
391
390
386
381
380
375
373
368
368
367
368
368
368
368
368
368
368
369
369
369
364
363
362
359
356
354
360
375
393
416
441
468
491
506
513
511
501
480
443
391
334
288
260
252
254
264
277
295
312
331
349
365
379
387
389
388
384
381
380
376
374
373
373
372
372
372
372
371
372
373
371
369
368
367
367
369
367
368
369
369
368
370
368
368
369
369
369
370
370
371
371
371
371
367
364
358
353
350
348
349
351
354
358
361
362
361
360
361
362
365
369
374
380
386
393
399
406
413
421
424
422
419
414
410
409
411
414
418
423
426
430
432
434
435
434
433
428
423
418
413
407
403
402
403
401
399
396
394
387
382
380
374
370
367
364
362
360
360
361
361
363
362
363
364
364
364
363
362
361
360
359
357
355
353
347
342
338
333
328
327
327
327
326
325
322
318
314
306
298
290
282
274
272
274
282
293
306
317
324
328
329
327
326
328
328
331
333
337
342
347
351
355
359
362
364
366
369
372
376
376
374
370
364
357
351
346
345
345
349
352
359
364
367
369
369
370
372
369
367
364
359
358
356
358
361
364
360
358
357
355
356
360
365
373
379
381
381
380
379
375
371
368
364
361
358
357
357
360
363
366
368
371
370
370
371
371
371
371
370
370
369
366
364
362
362
361
359
358
357
352
349
342
335
329
324
321
322
329
345
367
378
404
427
452
472
483
484
478
464
437
392
332
273
228
203
202
217
240
266
291
314
323
342
357
366
371
372
369
369
369
367
366
365
367
369
371
373
375
376
379
378
377
377
375
370
368
367
367
367
368
368
368
368
367
364
358
350
347
349
354
361
371
380
385
386
387
385
383
383
386
391
397
405
416
424
431
433
432
429
426
423
421
422
423
425
427
431
435
437
438
438
437
435
434
434
430
432
431
430
430
429
430
432
435
437
436
436
433
428
420
414
411
409
411
412
412
412
410
408
405
403
401
399
397
396
393
393
393
394
396
397
395
393
391
389
387
387
388
389
390
395
398
397
399
400
399
396
394
393
393
392
394
395
395
396
393
393
393
392
394
395
397
397
398
396
394
391
391
390
391
392
393
393
390
386
382
379
377
378
380
383
383
381
379
377
377
377
378
377
376
373
371
370
370
365
362
358
354
349
346
343
345
347
350
352
354
355
354
352
349
343
340
338
336
333
331
332
334
338
341
344
347
349
349
349
348
348
345
342
336
329
322
315
312
313
316
320
328
333
336
336
340
344
346
348
350
352
353
354
357
360
364
368
368
367
364
363
359
358
360
362
366
371
374
375
374
369
364
361
360
361
362
363
364
368
378
394
405
428
455
480
498
505
503
493
475
439
384
319
262
222
207
213
231
260
288
315
339
350
369
382
390
389
386
381
376
370
365
359
358
358
358
359
360
361
362
361
360
360
359
359
359
360
360
361
361
362
362
362
362
364
364
365
365
365
365
364
363
361
361
364
365
367
369
371
371
373
371
370
371
375
377
380
384
388
389
391
391
391
392
392
392
392
392
394
397
401
406
410
414
416
417
417
417
418
421
428
434
438
440
439
435
431
426
426
422
420
418
414
409
404
400
396
393
390
390
387
385
383
381
376
369
361
354
347
344
339
336
333
333
337
344
352
359
364
367
368
368
367
366
366
367
368
364
364
362
360
357
354
352
352
352
350
349
348
348
347
347
350
354
360
364
366
366
365
363
359
355
352
348
344
342
341
344
348
353
359
363
364
360
354
348
342
340
342
350
360
368
373
375
375
373
369
365
363
359
356
353
351
349
348
348
351
354
356
357
357
356
360
364
366
369
371
370
368
364
362
364
371
378
381
383
382
381
376
371
367
364
363
363
363
362
361
356
350
345
341
337
340
345
352
354
354
350
343
335
330
330
334
339
345
350
355
357
361
366
372
377
376
375
370
365
361
355
353
349
345
339
335
335
339
349
370
389
401
426
451
471
483
488
486
478
449
400
337
281
244
230
235
251
274
298
315
334
349
360
363
366
364
361
359
360
362
367
370
370
370
369
366
360
357
354
351
353
358
367
370
373
378
380
377
371
365
360
358
356
355
353
353
353
353
351
349
348
351
350
353
356
358
360
365
367
368
366
362
357
355
360
365
369
377
381
381
384
386
388
392
400
411
423
429
438
448
457
465
467
466
462
458
452
449
447
445
444
444
443
443
444
444
446
446
445
443
439
435
429
425
423
423
421
419
416
417
421
425
425
423
419
414
408
402
397
396
395
393
392
390
387
381
378
379
381
384
388
392
398
400
402
398
392
388
388
384
380
380
379
380
387
399
411
420
423
424
421
421
426
434
440
442
440
436
428
420
409
398
395
387
389
395
403
406
409
401
388
374
363
352
347
349
355
367
381
394
403
409
411
409
400
386
375
365
362
365
370
373
370
363
352
340
327
318
309
304
304
311
321
331
341
343
346
346
344
340
331
324
318
317
319
322
328
334
339
354
362
370
372
374
371
365
362
359
357
356
357
355
353
350
347
347
350
359
372
381
384
385
390
398
405
406
401
397
388
384
383
385
385
384
387
396
409
423
432
436
437
429
405
361
304
241
201
185
190
198
224
259
296
331
361
380
388
387
378
369
362
361
362
367
372
375
378
382
387
391
393
390
383
372
362
353
343
334
328
327
334
347
361
369
365
352
335
321
310
312
322
331
356
385
414
440
461
470
470
463
454
439
422
406
396
389
386
387
390
392
390
384
377
369
364
358
353
350
348
351
360
373
389
404
414
421
424
428
435
448
462
474
478
476
471
455
433
410
392
381
375
376
381
388
401
415
428
433
430
421
407
392
377
364
350
346
330
314
299
289
287
293
303
312
320
326
331
339
354
368
379
380
376
369
365
365
368
371
376
381
386
387
382
374
365
360
358
365
381
400
423
441
445
435
419
398
381
372
368
365
368
379
390
394
382
361
346
338
336
337
341
341
340
337
337
340
343
345
345
343
334
324
313
310
316
336
363
396
427
450
456
443
416
389
370
364
370
373
376
378
386
388
400
410
416
415
405
389
375
360
355
361
376
393
403
408
403
397
388
381
377
377
377
383
391
398
403
402
401
403
404
403
391
379
368
359
354
354
359
364
364
362
358
355
351
351
356
364
374
382
385
383
379
379
386
399
416
435
453
468
475
476
470
457
427
405
350
294
253
232
240
263
296
330
359
380
395
406
414
419
419
419
414
411
405
394
387
372
359
352
351
358
369
382
395
407
414
414
410
401
391
383
375
365
358
353
349
346
342
340
340
352
368
394
418
440
447
442
430
412
398
386
376
368
361
363
371
387
409
420
439
451
455
454
449
439
428
414
408
406
412
426
441
456
470
480
486
485
479
468
459
440
419
401
388
384
389
400
418
443
471
497
511
514
508
493
473
453
440
430
424
422
417
413
411
411
413
415
414
408
401
389
370
349
330
325
332
348
372
397
416
425
424
421
411
400
389
379
369
362
357
354
357
367
387
404
418
424
423
418
408
398
389
380
374
372
374
381
388
396
403
407
407
404
402
405
408
414
419
423
423
420
415
409
403
400
392
383
374
366
362
362
367
377
386
394
400
403
404
401
398
393
384
378
372
365
358
354
349
342
334
329
327
327
328
330
334
340
346
353
358
361
359
354
346
336
328
324
323
322
322
323
323
323
325
327
333
340
348
357
361
363
362
360
361
359
357
353
349
347
344
344
348
356
361
365
367
368
364
360
358
358
358
358
357
355
354
354
356
365
378
387
407
430
455
476
490
495
490
478
455
417
367
317
276
251
243
248
261
279
298
318
327
342
353
362
362
360
358
357
356
357
360
362
364
365
364
361
359
359
358
356
355
352
350
348
349
349
351
352
354
355
358
360
361
363
363
362
359
357
353
353
357
362
368
371
377
380
379
378
378
373
370
366
362
360
358
356
354
352
352
358
367
380
392
399
401
402
398
394
390
389
390
391
393
395
395
396
395
394
393
394
394
393
393
394
396
395
397
395
392
391
388
387
384
382
380
377
374
371
369
367
368
372
375
378
378
377
371
371
368
365
365
362
361
360
358
354
352
351
353
354
353
350
347
344
345
345
344
343
344
343
344
345
343
342
339
335
331
328
324
320
315
313
313
319
326
334
340
342
343
340
337
334
331
328
326
321
318
317
316
318
321
326
330
334
334
332
327
323
318
316
316
315
316
316
317
314
312
311
309
308
307
305
304
304
304
305
309
310
310
311
312
315
319
326
334
341
346
348
347
341
330
324
322
324
325
328
332
334
337
338
339
338
338
338
338
338
339
339
341
343
343
341
339
337
336
334
331
327
324
321
318
314
310
304
299
297
293
292
297
309
326
347
372
398
419
432
434
427
411
387
347
297
247
207
187
185
190
206
226
247
261
274
286
297
306
314
321
327
330
332
333
335
333
331
328
326
325
323
323
324
325
327
327
325
320
313
308
305
302
303
310
319
329
338
346
350
352
352
351
350
352
350
351
352
354
354
355
356
356
357
358
356
352
347
345
344
349
359
369
378
382
386
388
390
389
387
386
385
385
384
382
379
376
376
378
381
386
392
395
398
396
398
397
397
399
398
398
396
393
389
386
386
390
396
401
406
410
408
402
394
386
378
372
370
364
363
362
360
358
357
357
357
358
359
360
362
363
363
363
362
362
361
362
358
357
356
355
355
353
353
354
354
356
357
358
359
358
355
350
346
341
339
341
346
351
354
358
358
358
356
356
356
355
353
357
361
364
366
366
365
362
359
355
351
347
345
343
343
340
335
327
326
321
317
317
321
328
337
350
359
367
368
365
358
351
344
341
342
344
349
354
359
360
360
360
362
362
362
362
361
359
356
354
352
349
347
345
343
341
338
335
330
327
320
318
314
310
305
303
306
313
318
327
334
339
339
338
333
326
319
314
313
316
324
331
339
346
350
348
345
346
353
367
386
409
436
464
483
492
489
479
457
439
395
337
282
240
218
219
235
260
288
316
340
358
373
383
387
388
385
382
378
375
373
370
369
368
367
367
370
377
384
394
399
401
404
403
402
401
395
393
391
390
385
386
386
386
385
383
381
379
378
376
373
372
371
369
368
366
365
365
366
368
370
374
373
372
372
373
372
375
376
372
373
370
368
367
368
369
371
376
382
387
395
401
406
404
406
404
401
397
392
386
379
374
376
377
380
383
382
382
381
381
380
379
377
373
369
364
362
358
355
351
347
343
339
336
332
330
328
326
328
329
331
332
333
335
336
336
335
335
334
333
333
334
335
336
336
335
336
333
336
334
334
334
332
330
327
325
324
320
320
319
319
318
318
318
318
321
323
327
331
334
335
335
335
333
332
329
329
328
327
329
327
328
328
329
329
329
330
327
329
331
331
328
328
327
326
323
321
318
318
319
319
320
320
320
320
322
323
325
326
324
324
324
325
326
328
329
329
326
324
323
322
325
327
331
336
340
343
342
339
334
328
323
320
316
314
314
315
315
316
318
320
322
322
324
325
325
326
326
328
330
333
336
340
344
346
346
345
342
336
331
327
325
323
326
338
347
370
399
431
464
489
505
508
500
484
457
409
341
271
213
177
167
178
202
238
275
293
327
356
376
390
392
388
381
372
365
360
356
354
353
354
358
358
360
360
361
364
365
365
364
360
356
351
346
344
346
353
361
368
373
374
375
373
369
365
364
364
364
370
371
374
376
377
375
371
367
364
361
359
359
359
362
366
373
383
393
402
405
402
395
391
382
376
375
382
395
411
425
441
452
458
458
452
446
438
431
425
420
416
416
414
416
418
420
421
420
418
415
415
417
420
421
419
411
403
393
385
377
371
367
363
360
356
355
354
362
367
371
371
368
363
355
345
335
328
324
323
323
324
326
330
335
340
344
346
348
347
343
340
337
333
330
328
327
328
331
337
342
346
347
348
348
347
345
344
342
340
336
332
331
333
337
342
346
351
355
358
359
359
359
357
352
345
336
327
318
314
313
318
329
344
360
374
383
388
390
388
384
375
369
363
360
357
354
351
346
337
328
323
317
316
317
321
326
330
333
330
325
317
310
306
304
305
308
314
322
330
339
343
346
347
351
354
356
357
355
350
343
336
329
328
331
339
349
358
362
363
361
357
353
350
348
344
342
337
334
332
331
332
334
336
339
344
354
369
390
417
447
475
497
510
515
513
500
469
416
343
272
221
194
192
208
238
271
305
336
363
381
389
391
388
383
379
373
371
367
364
365
366
367
368
365
363
362
363
365
369
376
385
394
402
408
414
414
416
415
410
406
402
395
387
380
371
369
373
387
400
412
420
422
420
415
410
405
404
409
413
424
433
436
434
427
419
412
406
400
396
394
399
403
407
407
411
411
410
409
407
407
409
416
427
441
457
473
486
492
489
478
456
435
416
401
395
395
399
403
409
409
407
404
396
393
389
391
395
399
401
396
387
371
354
341
332
327
325
329
336
348
357
365
366
362
352
339
326
320
325
331
345
359
368
372
371
363
350
336
319
301
285
281
287
306
318
343
366
383
392
395
391
385
379
374
368
364
368
379
394
410
418
418
409
393
380
372
358
349
345
343
342
342
340
339
339
339
335
330
328
327
333
338
340
334
322
312
308
307
314
325
341
353
358
356
353
351
352
349
347
347
353
361
368
371
366
356
343
328
322
306
301
303
310
323
339
359
376
385
387
385
380
373
365
354
339
324
310
298
292
293
303
318
345
373
396
407
407
400
394
391
393
398
404
411
417
425
434
445
455
462
463
451
414
354
287
232
204
203
228
266
303
333
350
351
342
327
315
311
314
322
337
357
366
384
396
398
385
360
331
306
288
280
281
296
323
355
388
416
435
443
439
428
410
399
377
357
343
336
333
330
328
330
337
355
376
394
406
413
419
427
436
448
457
460
458
452
446
439
432
422
410
399
391
386
383
375
369
366
366
370
376
385
395
404
409
409
411
412
417
427
437
443
444
442
438
433
432
432
433
433
432
430
430
434
437
447
452
454
453
449
446
445
443
439
430
423
416
406
389
363
336
314
300
300
311
327
342
354
359
365
364
357
341
324
308
297
299
312
334
356
371
378
381
377
374
369
369
367
369
370
369
366
360
354
351
352
362
383
411
442
463
472
469
460
446
432
419
407
393
377
361
354
346
346
356
368
379
379
373
359
345
330
319
317
320
332
348
372
398
419
426
418
410
391
375
368
370
381
395
407
416
420
420
411
400
389
378
369
365
364
362
354
339
320
312
301
302
317
340
363
377
385
388
384
383
380
376
374
371
372
378
388
394
395
388
384
372
355
339
320
308
304
310
327
359
397
435
469
497
519
531
531
519
497
467
429
406
354
299
253
229
237
263
298
334
364
384
392
392
385
