413
413
414
414
416
416
416
414
411
407
406
403
402
400
399
397
394
392
388
385
380
375
371
367
365
362
360
360
357
354
351
347
345
343
342
342
343
344
341
336
331
329
328
328
329
331
334
335
335
335
334
333
332
331
332
333
334
334
335
336
336
336
337
338
339
338
338
337
337
336
336
338
341
342
342
340
339
336
337
337
340
342
343
343
343
342
342
342
342
340
339
338
339
343
343
344
345
344
346
345
345
344
343
342
341
340
338
339
340
340
341
343
345
346
345
342
342
342
342
342
343
344
346
346
346
345
345
345
344
344
345
343
343
343
344
344
345
346
346
346
347
347
347
346
348
349
350
350
351
350
350
351
352
354
358
362
364
365
365
364
362
361
362
361
361
360
358
356
354
351
351
351
347
346
344
344
343
342
344
345
346
347
346
345
343
344
343
343
344
344
343
343
342
341
341
342
344
345
347
347
347
344
342
341
339
338
339
342
347
360
380
403
427
454
476
490
491
483
466
442
407
355
291
227
181
158
158
165
188
219
252
281
307
328
345
356
362
366
365
364
363
362
361
359
358
356
357
358
358
357
357
358
359
359
362
361
361
360
359
359
359
360
360
360
360
359
360
360
363
367
369
372
375
377
377
375
373
371
370
372
374
376
377
379
378
376
375
375
377
379
380
380
381
382
384
385
388
391
393
393
393
391
393
393
394
396
399
401
403
405
408
410
412
413
414
417
420
421
422
424
427
427
430
431
431
429
428
426
427
428
429
430
430
430
428
427
426
426
425
423
420
417
415
412
410
409
406
403
400
396
392
387
384
381
377
375
371
366
363
359
357
356
354
353
351
349
346
344
343
342
342
342
342
342
341
340
339
339
339
341
344
344
345
344
344
344
345
344
343
343
342
342
343
341
342
344
346
347
347
347
346
347
347
348
348
349
349
350
352
353
354
353
351
349
349
348
348
349
351
352
354
356
357
357
355
353
354
355
355
356
357
356
354
351
350
349
351
354
356
357
358
357
357
357
355
356
358
359
360
359
359
357
359
360
361
362
362
360
359
357
357
359
360
364
368
371
369
366
364
362
362
363
365
366
367
369
369
370
370
372
375
378
379
380
381
382
384
387
390
395
400
404
407
410
411
415
417
418
417
414
411
410
407
404
401
399
398
395
391
388
387
387
388
389
393
392
392
392
393
392
393
391
390
390
391
390
390
389
386
384
381
381
379
380
382
384
384
382
381
379
377
375
376
384
399
419
442
455
481
503
518
520
510
492
467
431
376
307
239
186
154
149
163
189
221
252
281
307
329
339
353
361
365
362
358
353
349
345
342
341
342
343
343
342
341
338
338
338
339
340
340
341
342
342
342
342
342
342
341
340
339
339
340
343
345
348
350
350
350
351
352
352
355
358
360
360
360
359
358
358
357
357
356
355
354
352
349
349
350
352
355
358
359
360
362
363
364
365
367
369
370
372
373
375
378
382
385
388
391
394
397
400
404
407
409
412
412
410
408
408
409
412
414
418
419
421
421
420
418
416
415
415
415
414
411
411
406
403
401
399
395
392
388
382
376
371
367
364
362
359
357
356
352
351
349
348
347
345
340
334
331
330
330
331
333
333
334
333
332
331
330
331
333
336
339
342
345
345
345
344
343
343
342
342
340
338
335
334
333
334
334
333
333
333
333
333
334
335
335
334
332
332
331
331
330
330
330
330
329
328
326
323
322
323
323
323
322
321
318
318
317
317
317
317
317
316
316
315
313
311
310
309
310
311
311
310
309
307
306
306
306
307
308
307
307
307
306
305
302
301
300
300
300
300
302
306
306
306
306
307
305
304
305
305
305
304
303
304
304
304
305
306
305
304
303
303
303
303
301
300
299
301
302
304
306
308
310
312
313
315
316
317
316
317
318
320
324
325
325
322
317
312
309
308
308
308
307
306
304
301
299
298
298
299
301
302
302
302
301
300
299
299
297
298
299
299
299
299
301
302
304
305
307
307
306
305
304
304
306
305
306
306
307
309
316
330
351
377
406
420
450
472
484
484
473
455
427
382
316
238
169
122
103
108
130
161
196
227
255
281
293
314
328
337
342
343
342
339
335
333
329
327
327
327
327
327
326
327
325
325
326
327
329
330
331
332
333
334
333
334
335
335
336
339
341
344
347
350
351
351
350
350
350
350
350
349
351
351
352
353
353
352
353
355
357
358
360
361
363
364
366
367
368
369
370
370
370
371
372
375
379
383
386
388
388
389
390
393
395
397
398
400
402
406
408
409
412
415
416
417
419
419
418
419
421
423
423
423
422
420
418
416
416
416
416
416
415
415
412
408
405
402
401
398
394
391
386
383
379
375
372
368
365
360
356
352
348
347
346
344
342
339
336
334
332
332
332
331
330
329
329
328
327
328
328
329
330
329
330
331
331
332
333
335
335
335
335
334
333
332
332
333
334
335
335
335
333
332
332
334
336
337
340
341
341
340
338
337
337
338
339
339
341
341
341
342
343
344
344
344
344
342
341
339
338
339
340
340
339
338
339
340
342
344
344
343
341
342
342
340
340
341
342
343
344
343
342
343
341
342
343
344
345
344
343
343
343
344
345
343
341
340
340
340
341
341
342
345
344
343
342
341
340
340
342
341
340
340
341
340
341
342
344
346
347
348
347
344
341
341
343
348
352
356
358
360
360
360
359
361
362
363
364
364
361
358
357
358
356
356
355
355
353
351
348
346
342
341
341
342
344
345
347
349
349
347
346
343
340
339
337
336
337
338
339
340
342
344
345
346
347
348
347
348
348
346
344
344
346
351
356
371
391
415
440
468
494
512
518
515
501
477
436
378
305
232
177
149
145
160
186
202
235
264
289
310
329
345
357
364
369
372
372
371
371
368
366
363
361
360
360
363
364
365
366
367
368
368
367
367
367
367
368
368
369
370
372
374
376
378
379
379
379
378
378
377
376
378
379
380
381
381
381
381
379
378
377
377
378
380
381
383
384
386
387
388
389
389
391
393
395
397
397
398
398
399
401
404
404
406
410
412
413
414
414
416
419
420
424
426
426
427
427
427
428
429
429
430
430
431
432
433
434
433
430
428
427
425
425
423
422
421
420
420
419
418
416
413
410
406
403
400
397
393
389
384
379
373
372
371
370
369
366
364
361
356
352
350
349
349
349
348
345
344
342
340
339
339
338
338
338
338
340
341
343
345
347
346
345
342
340
339
339
341
342
343
343
342
342
343
343
344
345
347
348
348
347
347
345
344
345
345
345
347
348
350
351
352
352
353
352
350
349
349
348
349
350
351
350
351
352
352
353
353
355
356
354
352
350
349
347
349
351
352
353
354
352
351
350
350
351
351
352
350
349
347
347
345
345
347
349
351
353
354
354
354
353
353
353
353
351
351
350
349
347
348
348
348
349
350
350
349
349
349
350
353
354
354
354
353
351
351
352
355
357
362
365
366
365
365
366
367
369
370
370
369
369
368
367
367
365
364
361
358
355
352
350
348
347
345
345
344
344
343
343
345
347
348
347
346
346
345
344
344
345
346
346
346
346
345
345
345
346
345
344
344
344
343
342
343
345
345
352
363
378
397
418
442
466
486
497
499
490
472
444
402
341
271
210
167
150
155
172
184
213
244
271
296
316
334
346
353
357
360
362
362
361
360
360
358
357
356
356
356
357
357
359
358
358
357
358
360
362
365
368
369
370
370
369
369
369
369
370
371
372
372
373
374
374
372
370
367
367
367
368
370
371
372
372
372
372
371
371
373
374
377
379
381
382
384
385
385
387
386
387
388
389
390
391
394
397
399
403
405
407
406
405
405
406
408
411
415
417
418
418
418
419
420
422
424
426
427
428
426
424
422
421
421
422
423
421
421
419
419
417
414
412
410
407
404
401
399
395
394
392
390
386
383
377
370
365
363
360
358
356
353
352
351
352
350
349
346
342
338
335
334
335
335
336
336
338
336
336
336
337
338
339
339
340
339
338
339
339
339
337
335
334
335
336
337
339
341
343
344
345
346
345
341
339
339
338
340
343
344
344
344
344
344
343
344
345
345
345
344
343
343
343
344
344
346
346
345
345
345
346
346
347
348
348
349
347
344
342
341
341
342
344
344
345
345
346
347
347
346
345
344
343
342
342
342
342
342
342
343
344
343
344
344
344
345
346
348
348
347
345
343
342
340
341
343
345
345
344
343
342
342
342
342
341
340
340
340
340
341
342
343
345
344
343
344
343
343
343
343
345
346
348
348
348
349
350
352
355
357
359
360
359
358
356
357
357
357
357
355
353
351
348
346
346
346
345
345
343
341
341
340
340
341
340
339
337
337
335
335
336
339
340
341
342
342
340
340
340
341
342
341
340
340
340
340
340
341
344
346
350
356
368
383
404
427
452
477
494
498
496
484
463
432
388
327
259
198
155
137
143
164
196
230
262
291
317
336
350
359
362
364
362
359
356
355
354
354
354
357
359
360
361
361
358
356
356
357
358
360
362
362
363
363
363
364
366
368
370
373
374
374
374
373
373
373
374
373
374
371
370
369
370
370
371
371
371
370
370
372
375
377
380
381
379
379
380
381
381
382
382
384
386
389
390
391
393
394
394
395
396
397
398
399
402
405
408
410
412
414
413
416
417
419
422
424
426
427
428
429
429
430
431
430
429
429
427
426
426
426
427
427
427
424
422
417
415
412
411
409
404
400
397
394
390
387
385
382
380
378
373
369
363
359
355
353
352
351
350
349
347
345
344
343
342
341
340
339
339
339
338
338
339
340
341
342
340
338
336
335
336
336
338
338
338
338
339
340
342
342
343
342
340
337
335
336
338
340
341
342
343
341
340
339
338
339
340
341
342
343
343
344
346
345
346
345
344
343
343
343
343
343
343
342
343
342
342
342
344
346
346
346
346
346
346
345
345
345
347
346
346
346
343
342
341
341
341
342
344
346
348
348
347
345
343
341
342
343
344
344
345
344
343
342
343
343
342
342
341
342
341
340
340
340
341
341
341
340
342
340
341
341
341
342
342
342
342
344
343
344
345
346
343
341
340
340
340
342
344
344
345
344
345
344
344
343
341
340
337
338
339
341
344
347
351
355
355
357
357
358
359
361
363
365
367
365
363
360
358
355
354
354
355
353
352
350
348
346
345
344
343
343
342
340
340
339
340
341
343
344
345
346
347
347
346
345
344
344
343
343
342
344
345
346
346
347
346
348
348
351
360
375
394
406
429
454
476
493
499
494
480
460
431
381
315
240
179
139
125
134
158
189
222
255
271
300
326
345
358
364
364
362
359
356
354
354
354
354
353
353
351
348
348
349
351
351
352
350
349
349
351
354
358
360
362
362
362
364
365
368
370
373
374
375
376
375
373
372
370
369
368
368
368
368
368
369
371
375
377
378
378
377
378
378
379
381
383
385
386
387
388
389
390
391
393
395
396
398
398
399
400
404
407
409
411
411
412
411
413
416
418
421
422
422
423
425
427
429
430
432
430
429
428
429
426
425
425
425
426
426
426
425
424
423
421
418
416
411
406
402
399
396
392
389
387
384
382
378
373
368
364
361
360
359
358
356
354
351
346
341
339
338
338
339
339
336
334
334
335
336
337
339
338
339
337
337
337
337
338
336
335
334
333
333
334
336
337
339
340
340
338
339
339
338
339
341
343
346
347
345
342
338
337
336
337
338
340
340
341
342
342
342
342
342
343
343
342
344
344
343
343
343
342
341
340
340
341
343
346
346
346
345
346
346
345
344
344
343
342
342
341
340
337
337
337
339
341
342
343
343
343
341
341
341
341
342
341
341
341
341
341
341
341
340
340
339
339
339
341
339
339
339
337
338
338
338
337
336
336
336
337
337
339
340
341
341
340
340
339
339
339
339
339
340
341
342
343
341
340
339
339
339
341
343
345
346
344
343
341
340
340
340
341
340
338
338
338
340
341
343
345
347
346
346
347
347
346
345
344
345
346
348
349
351
353
353
354
356
358
359
360
361
362
364
365
366
367
368
367
364
361
357
355
354
354
352
350
348
347
345
345
344
344
342
342
343
342
343
344
345
345
344
343
342
340
339
338
339
340
342
342
343
343
342
340
340
340
340
341
342
347
358
376
399
424
451
477
496
505
503
492
473
441
389
319
240
175
133
122
120
137
168
204
239
271
300
324
342
355
361
361
358
356
353
352
351
351
352
354
356
356
357
357
356
354
354
355
356
358
360
360
361
361
362
364
366
368
368
369
369
371
372
374
376
376
376
375
373
374
374
375
377
378
378
378
378
378
375
374
374
377
378
379
381
382
382
383
384
386
388
390
391
393
394
395
396
397
398
400
402
403
404
405
406
407
410
409
410
411
413
416
417
422
425
428
430
430
430
427
425
424
423
424
426
426
425
424
423
424
423
423
423
422
420
419
415
413
411
409
407
406
403
402
398
396
393
392
388
384
380
373
368
364
361
361
361
359
358
356
354
351
350
349
348
347
346
346
345
346
347
348
349
347
346
345
345
345
346
346
347
347
346
345
345
345
344
345
346
347
347
348
348
350
348
347
348
349
349
349
350
351
350
350
351
352
352
352
351
352
351
352
353
354
354
353
353
351
349
348
348
350
353
352
352
350
347
344
343
343
344
345
346
348
348
349
350
349
350
347
346
345
343
343
344
347
348
349
347
347
346
343
342
341
341
342
342
341
342
341
342
344
347
347
348
346
344
342
339
338
340
342
344
347
348
348
348
347
345
347
347
348
348
347
346
344
343
343
344
345
346
348
348
348
348
348
350
349
349
349
349
349
349
347
348
348
349
351
352
352
351
350
350
350
351
351
350
351
350
349
349
350
351
351
351
351
350
351
351
353
355
355
354
353
353
354
356
358
361
362
362
362
361
364
365
367
368
369
371
372
372
372
370
367
365
362
359
359
358
356
356
354
353
351
350
348
347
346
346
347
347
347
347
348
348
346
345
345
345
346
348
348
348
347
345
345
346
346
347
348
349
349
347
347
348
352
364
380
400
424
447
472
490
498
502
498
486
466
431
377
306
232
173
142
137
151
178
210
241
268
291
310
326
341
346
355
362
366
368
367
366
364
361
358
354
352
353
353
355
358
359
360
360
360
360
360
360
365
366
369
370
370
369
369
369
372
374
375
375
374
372
371
370
370
371
372
371
371
370
369
369
370
370
372
374
375
376
377
377
377
380
381
383
384
386
387
387
386
386
385
389
389
391
391
394
396
398
400
402
404
405
407
407
408
409
411
414
415
416
416
417
418
418
419
421
422
422
422
422
421
420
420
419
419
419
418
418
416
415
415
414
413
411
409
407
403
401
398
396
393
391
388
384
381
375
370
367
365
362
360
358
356
356
353
352
350
349
348
345
343
340
339
339
341
342
342
341
339
336
334
335
336
338
339
340
340
340
339
338
338
339
340
340
341
341
339
338
339
339
341
341
341
341
341
343
343
345
347
346
347
347
346
345
346
345
345
345
345
344
344
342
342
343
345
345
345
346
346
344
343
343
343
346
346
348
349
348
347
345
343
343
343
344
345
344
344
345
345
346
346
346
345
344
343
342
342
342
344
345
345
345
343
341
341
340
340
340
341
340
341
340
340
340
340
339
340
339
339
338
338
339
341
342
343
344
343
341
339
338
338
339
341
342
344
344
344
343
342
343
341
342
342
342
341
339
339
339
339
340
340
340
341
340
342
342
343
344
344
343
343
342
342
342
341
341
341
342
342
342
343
343
343
343
343
343
344
344
344
345
344
343
345
347
348
346
344
342
342
343
345
348
352
353
355
356
356
357
358
359
361
362
364
364
365
366
364
363
362
361
359
358
358
357
356
355
353
353
349
346
344
344
343
343
344
345
344
344
344
346
346
348
349
350
347
346
346
347
347
349
349
349
347
346
344
344
345
344
348
353
363
380
401
423
446
469
487
494
489
482
462
436
401
352
289
226
175
145
138
151
175
209
243
277
307
333
350
360
365
367
365
363
361
359
358
357
357
356
355
355
357
358
359
360
361
361
361
362
362
363
361
360
360
361
364
366
368
371
373
375
376
377
376
374
374
374
375
375
376
374
373
372
372
373
374
377
376
375
374
375
373
375
379
382
384
386
387
389
388
387
385
386
384
386
388
390
392
396
398
401
404
404
403
402
402
403
406
408
411
414
416
417
418
419
421
423
424
426
427
427
424
422
421
421
422
422
423
422
421
417
416
416
416
416
414
412
410
408
405
401
399
397
393
391
388
386
381
378
376
374
370
367
363
361
357
354
351
351
349
349
349
348
347
347
346
345
344
344
344
343
343
342
342
342
342
342
342
342
342
343
343
343
344
341
340
340
340
340
340
342
343
343
343
344
344
343
342
343
343
343
344
345
345
344
344
345
346
347
347
348
348
350
349
349
348
348
349
350
350
350
348
347
345
345
344
346
345
344
343
344
344
345
347
348
348
348
347
346
344
342
341
341
341
343
343
345
346
345
347
344
343
341
340
338
338
340
341
342
341
340
340
339
340
340
340
341
339
340
339
340
341
342
343
344
344
343
341
341
340
341
343
345
347
347
348
348
345
345
344
343
341
343
345
346
346
346
346
345
345
344
344
344
343
343
343
342
342
342
342
343
344
344
343
343
343
342
342
343
343
343
344
343
344
345
346
346
346
344
342
342
342
342
344
345
345
345
345
346
345
347
349
351
351
352
350
348
347
347
349
350
351
351
351
350
349
348
346
347
345
343
342
344
346
348
351
352
351
351
351
351
352
354
355
356
359
361
364
365
365
364
362
360
357
357
358
356
355
353
349
345
344
344
346
347
347
347
347
345
344
344
344
345
346
346
346
346
344
344
345
348
347
348
348
347
347
347
349
348
347
346
347
349
355
368
386
406
427
448
472
489
496
491
476
454
422
375
345
276
209
157
130
130
147
175
207
242
276
307
334
354
367
372
372
367
363
360
358
358
358
359
360
358
357
357
356
358
359
361
362
363
362
362
361
363
365
368
367
366
365
366
366
369
372
375
376
377
376
375
372
372
372
371
372
371
371
370
371
372
374
376
377
379
379
378
376
377
379
382
385
389
392
391
390
388
388
388
391
392
395
397
399
400
403
405
407
408
407
407
408
408
413
416
419
422
423
423
423
423
423
424
426
429
429
429
428
427
427
427
427
426
425
425
424
423
420
419
418
417
415
414
412
411
408
406
404
403
400
396
392
387
383
380
376
372
370
367
364
360
358
354
352
350
350
349
349
348
346
345
344
343
343
343
341
340
339
338
338
338
339
339
338
338
336
336
336
336
337
337
339
338
339
338
338
338
337
339
340
341
341
341
339
339
341
343
343
344
344
345
346
344
343
342
342
341
340
339
341
340
341
343
344
344
344
343
341
341
341
342
344
344
344
343
344
341
340
339
340
342
344
345
345
343
340
338
336
337
338
339
340
340
339
338
339
339
340
342
344
344
344
343
342
341
341
341
341
343
343
344
344
344
345
344
344
343
343
343
343
343
342
340
339
339
340
340
340
341
342
343
343
342
341
340
340
340
340
341
341
341
341
341
341
341
341
341
341
341
341
341
341
342
342
341
340
340
339
339
338
339
339
341
342
344
347
347
346
345
344
343
344
347
348
349
348
348
347
346
346
347
349
349
348
346
344
343
344
344
345
345
346
345
345
345
344
344
345
346
347
347
347
349
350
351
352
352
351
350
349
350
350
350
351
350
351
351
351
352
353
353
355
355
359
361
362
362
362
362
363
362
363
362
362
362
362
362
362
361
360
359
355
352
350
348
346
343
344
345
345
346
346
345
345
344
343
342
343
342
342
342
342
343
344
344
345
345
346
345
343
342
342
343
344
345
347
350
359
375
396
420
445
469
489
500
500
496
481
460
432
387
325
255
190
146
128
135
159
190
223
254
282
308
331
349
360
368
371
371
369
365
363
361
360
359
358
358
358
358
361
361
363
364
366
367
368
367
367
366
366
367
367
369
371
372
373
374
375
377
379
380
380
379
378
377
376
377
378
378
377
376
376
375
374
375
378
379
379
378
379
380
380
382
383
385
385
388
390
391
391
391
392
394
398
398
400
401
402
402
404
407
410
412
414
413
413
412
414
416
419
421
423
424
424
425
425
426
427
428
430
429
427
424
420
418
418
418
419
420
422
422
421
418
415
415
411
408
405
403
398
397
396
395
394
391
389
386
381
376
372
369
365
364
361
358
356
354
353
353
352
351
349
348
348
349
349
350
349
346
344
342
340
338
338
339
342
343
344
343
343
343
342
341
341
341
341
341
341
341
341
342
344
346
348
350
350
350
349
348
347
346
346
345
344
344
341
341
341
343
344
346
347
347
347
347
346
346
343
344
344
343
343
341
342
343
345
346
347
346
347
345
344
343
343
344
345
344
343
342
340
339
336
335
335
337
338
338
340
342
342
341
340
339
339
339
339
340
342
343
343
342
341
340
339
338
337
339
341
342
344
345
343
342
341
339
340
341
342
343
342
343
342
342
342
341
342
343
343
343
341
340
340
341
341
341
342
340
340
341
343
344
346
346
346
345
344
343
343
343
342
344
344
345
345
345
343
342
343
344
344
345
345
344
345
347
348
349
350
349
348
347
347
348
346
346
346
347
346
347
348
348
349
349
349
349
347
347
348
348
350
350
350
349
348
347
347
347
348
350
351
352
354
354
352
352
352
353
354
355
357
358
359
360
362
363
366
367
368
368
369
370
370
371
371
370
368
366
363
361
360
360
359
358
357
354
352
349
347
347
347
348
347
346
344
345
346
348
350
351
352
351
350
348
346
345
345
345
344
346
346
346
346
345
345
345
347
352
362
375
392
413
436
447
470
489
498
498
488
471
443
398
335
261
194
151
134
141
163
195
230
258
281
301
316
324
337
348
354
359
363
363
363
361
358
357
356
356
356
357
356
357
356
356
357
359
360
363
363
362
360
359
360
361
364
368
371
374
375
375
374
374
375
374
375
374
373
373
373
371
371
371
372
373
373
373
373
372
373
375
376
377
378
378
380
382
383
385
386
386
386
386
386
389
391
394
396
396
396
395
395
397
398
400
402
406
409
410
413
414
415
416
417
417
416
416
416
417
419
419
420
420
421
418
417
415
414
413
414
414
415
415
414
412
410
408
407
404
402
399
395
391
388
384
382
381
380
378
374
371
366
361
357
355
353
352
351
349
348
347
345
344
342
342
341
340
340
340
338
338
337
338
336
337
337
337
337
337
337
338
340
341
341
340
338
337
337
338
342
343
344
343
341
340
341
341
343
344
343
342
342
343
344
346
348
349
349
349
348
347
346
346
346
346
345
346
346
348
348
348
347
348
346
346
347
348
347
348
347
347
346
346
345
344
343
343
344
345
345
346
347
347
346
346
346
346
346
346
345
343
343
342
342
343
345
346
347
348
348
347
347
347
345
344
343
343
342
340
339
339
340
342
344
345
345
342
342
341
342
342
345
345
346
346
345
344
344
344
343
344
343
344
343
344
345
345
345
344
344
345
345
344
346
346
348
346
345
344
344
343
343
344
345
347
348
349
349
346
345
344
346
346
348
348
348
346
344
344
344
345
347
349
350
351
349
348
345
344
344
347
348
350
351
351
351
350
350
350
349
348
348
349
349
350
349
350
350
351
349
348
347
347
350
351
354
356
357
358
358
358
359
360
362
363
364
366
365
368
368
369
369
369
369
368
367
365
363
361
359
356
353
350
349
348
348
349
350
352
352
349
349
349
348
347
347
347
347
347
348
349
348
350
349
349
349
349
349
350
349
349
349
351
354
361
371
387
407
429
451
473
481
490
488
475
456
429
394
344
284
223
175
148
144
157
182
214
248
281
310
334
352
358
366
368
368
367
366
364
362
361
360
359
359
360
361
360
362
361
363
363
364
363
364
365
364
365
367
369
370
374
374
374
374
375
375
375
376
376
375
377
375
374
374
374
375
376
376
376
377
377
377
377
378
378
379
380
381
382
382
382
384
385
386
388
390
391
391
391
391
391
393
395
397
399
400
399
399
400
402
406
411
413
416
418
419
419
419
419
421
422
422
423
422
423
423
423
425
426
427
426
425
422
420
420
420
419
419
418
417
415
413
410
408
405
403
400
396
392
390
387
387
385
383
380
376
372
367
363
362
360
359
358
356
354
352
349
348
348
348
347
346
344
344
342
342
343
344
344
346
345
344
343
341
341
342
343
343
344
344
344
344
344
344
344
344
345
345
344
343
343
344
346
346
346
347
348
346
344
344
345
347
348
349
349
349
347
346
346
346
347
346
346
345
345
344
344
347
347
348
348
348
348
348
348
350
350
349
348
346
343
342
343
345
345
345
345
345
344
344
344
343
343
343
342
344
345
348
349
349
348
347
344
341
340
340
340
341
341
342
343
344
345
345
344
344
343
343
343
343
342
343
341
341
340
341
342
343
343
344
344
343
344
344
344
344
344
344
342
343
344
344
343
344
345
345
345
346
347
349
350
348
348
347
345
343
343
342
346
347
348
348
348
346
347
347
348
348
347
347
347
347
346
346
345
345
345
346
346
345
344
343
344
345
347
348
348
349
347
346
345
344
345
346
347
348
350
351
350
349
347
347
347
349
349
350
349
349
349
349
351
352
353
353
352
350
348
346
347
349
350
351
351
352
355
359
362
365
367
367
366
367
367
367
366
365
363
362
361
361
361
360
360
359
355
352
348
346
345
343
345
345
345
347
347
347
347
347
346
346
346
346
345
344
344
344
345
346
347
347
346
346
347
347
349
349
350
351
353
363
380
401
424
449
474
495
505
500
485
462
433
389
330
260
197
150
130
134
154
169
205
241
275
305
332
352
367
372
374
374
371
367
362
360
358
358
359
360
362
364
364
365
364
363
362
363
364
366
366
367
367
366
366
367
370
374
376
380
380
379
377
375
375
375
376
377
376
376
378
378
380
381
384
383
383
382
382
381
380
379
380
381
383
384
387
388
390
392
395
396
397
398
398
399
400
401
402
402
403
405
405
407
408
411
412
414
416
417
418
421
422
423
425
427
429
430
430
431
431
430
429
428
425
427
426
425
425
424
424
424
425
425
424
422
418
415
412
410
409
406
403
399
396
392
389
386
385
383
379
375
371
367
366
364
361
358
355
352
350
349
348
346
345
344
343
343
341
339
338
337
337
339
338
338
337
337
336
336
337
339
339
341
343
342
341
339
337
338
340
342
343
344
346
346
344
344
344
345
348
350
350
349
347
346
348
347
347
347
347
346
345
346
346
347
347
347
347
345
346
346
346
346
346
346
346
345
344
344
344
345
345
347
348
348
347
345
343
342
342
342
341
342
340
340
341
341
341
343
345
346
346
346
345
344
343
343
343
343
343
343
343
343
343
343
342
341
341
340
341
342
344
343
343
343
343
342
342
341
341
341
341
342
342
339
339
340
341
341
342
344
345
344
344
342
341
340
340
340
341
342
343
344
345
345
346
346
347
348
347
346
345
345
343
343
343
342
340
339
339
340
343
343
343
344
343
343
343
344
345
346
347
347
346
344
343
344
346
345
346
346
346
347
347
348
348
348
348
348
346
343
343
343
343
345
346
348
349
349
349
348
348
346
347
348
348
348
347
347
347
349
351
352
353
356
357
358
359
361
362
363
364
365
364
363
361
360
361
360
360
359
358
356
353
351
349
347
346
345
344
343
343
344
345
343
343
342
343
341
341
342
344
344
346
346
347
345
344
343
344
343
344
345
346
346
345
346
347
350
355
368
385
407
429
452
473
491
500
498
488
469
442
397
334
259
189
140
127
120
133
161
198
234
268
296
322
343
358
365
368
367
364
361
360
359
359
357
356
356
356
356
358
359
361
362
363
363
362
362
362
361
362
361
364
364
366
368
370
373
373
375
376
376
374
375
374
374
373
373
373
374
374
373
373
373
374
377
376
376
377
377
378
377
378
379
382
384
387
388
389
390
392
393
395
396
397
397
399
400
403
405
406
406
407
407
408
408
411
415
418
420
422
423
424
425
426
426
427
425
426
425
423
423
423
424
424
424
424
425
426
424
419
416
413
411
409
408
408
407
407
406
405
404
400
396
394
388
385
380
378
375
374
371
367
364
362
359
356
354
353
352
350
348
347
347
346
346
345
341
338
336
336
335
336
338
341
343
343
342
341
340
338
337
338
338
340
342
342
342
343
343
343
344
344
344
345
346
345
344
344
344
345
346
346
347
347
347
349
350
351
351
351
349
346
345
345
347
349
350
351
351
351
349
349
350
350
349
349
348
346
345
344
342
342
343
344
344
346
344
344
344
344
344
344
344
344
344
344
344
344
343
343
342
342
342
342
343
344
345
345
345
344
344
341
340
340
340
341
342
343
342
341
342
343
344
344
343
343
341
340
339
338
339
341
343
344
344
344
341
340
339
340
342
344
345
346
346
346
345
343
340
339
339
341
341
342
343
343
343
342
342
343
344
343
343
343
343
342
342
342
342
341
341
340
341
343
344
345
347
345
345
345
345
345
345
345
344
345
343
344
344
344
344
345
345
345
347
348
347
346
346
346
347
348
349
350
349
348
348
350
351
352
352
353
353
353
355
358
360
362
363
364
365
367
368
369
370
369
367
366
364
361
360
359
359
357
355
352
350
347
347
347
349
351
351
348
346
346
347
346
347
347
348
347
346
344
344
345
346
348
350
351
350
348
345
343
344
345
348
353
363
377
384
403
424
449
474
494
506
507
499
484
458
416
355
281
209
160
138
139
159
190
225
242
271
294
312
326
338
349
358
364
368
367
366
364
362
361
361
360
362
361
362
362
362
360
360
360
360
362
361
363
364
366
367
368
370
371
372
373
373
373
374
375
377
377
378
379
378
378
375
375
375
374
376
376
376
376
377
378
379
380
381
381
382
381
380
380
382
385
388
390
391
391
391
391
393
395
398
397
398
397
397
399
400
402
406
408
410
411
412
413
414
417
419
421
423
424
423
422
421
420
420
420
419
419
417
417
417
417
417
417
416
415
413
413
413
413
411
408
405
401
397
393
390
388
386
384
378
375
371
370
367
364
362
359
357
354
352
351
348
346
344
342
341
338
337
335
335
335
335
335
336
335
334
334
334
333
333
333
334
333
334
334
334
335
335
336
337
338
338
337
335
335
335
336
338
340
341
342
343
344
343
342
342
341
340
339
338
337
337
338
340
342
345
345
346
346
345
343
342
342
343
344
344
343
341
339
338
339
343
345
347
347
347
346
344
343
341
339
339
339
339
338
340
339
340
341
342
343
343
343
343
343
343
343
343
343
343
342
342
341
341
341
342
342
342
340
339
338
338
340
340
341
342
342
341
340
339
339
340
342
343
344
344
342
340
340
339
340
340
339
340
340
341
342
345
344
344
342
342
341
342
344
346
346
347
347
346
342
342
342
342
343
344
346
347
347
347
347
346
344
344
343
344
345
345
345
346
347
349
349
348
346
343
342
341
342
343
345
346
347
348
348
349
348
348
349
350
350
351
349
347
346
343
343
346
348
352
354
355
355
352
353
355
356
359
361
362
364
366
366
366
365
364
361
359
357
357
356
357
355
353
351
349
347
347
346
347
347
346
344
344
343
343
343
344
345
345
344
343
342
342
343
343
344
346
346
346
345
344
344
346
345
347
349
351
354
363
379
400
422
447
469
486
493
487
471
450
433
395
344
279
215
165
140
138
153
181
216
251
281
310
334
351
360
365
364
364
362
361
360
360
361
359
360
358
356
354
354
355
356
360
360
360
359
359
359
360
361
364
363
366
368
370
371
373
373
375
375
375
375
374
374
372
372
371
369
368
368
368
370
373
374
377
377
378
378
378
377
377
377
378
379
381
382
384
384
387
389
390
392
393
395
396
398
399
401
402
402
403
403
405
406
408
408
410
410
413
417
420
423
424
424
423
423
424
424
424
424
424
424
424
423
422
422
422
421
420
418
415
412
408
405
403
403
401
400
398
396
392
386
383
381
377
372
370
368
366
365
363
361
358
353
351
347
345
342
342
341
341
341
341
340
339
338
336
335
336
337
338
337
335
335
333
334
335
339
340
340
340
336
334
330
329
329
331
333
335
337
338
339
341
342
342
342
339
337
336
336
336
337
339
341
343
345
345
347
347
346
345
343
342
341
341
342
343
345
346
344
345
345
345
345
345
344
342
342
343
343
344
344
343
342
342
344
343
344
343
342
342
343
344
345
346
345
345
343
342
342
343
344
346
347
347
346
345
343
342
342
343
343
344
344
343
344
344
345
347
348
348
346
346
344
346
346
346
348
348
347
345
344
342
341
341
341
343
344
345
346
345
345
344
345
345
345
346
347
346
346
346
346
345
344
343
342
342
341
343
344
346
348
350
351
351
350
350
351
351
351
350
349
348
349
349
351
352
352
353
352
352
350
349
348
347
347
348
349
352
351
351
352
350
349
351
351
351
352
352
350
351
351
350
350
352
354
352
352
352
353
352
352
351
352
351
352
354
356
357
359
363
364
367
367
368
368
370
370
371
370
368
365
363
361
360
361
360
360
358
356
353
351
348
347
347
347
348
347
348
349
346
346
347
348
350
348
348
347
346
346
346
346
346
347
347
348
349
348
348
348
349
351
352
356
364
378
398
420
442
467
485
496
495
485
464
450
417
369
308
240
180
140
127
137
162
196
233
268
300
330
349
361
367
368
367
365
362
362
362
361
362
363
363
360
358
358
358
358
360
363
366
365
365
363
361
360
361
363
364
366
369
370
372
374
375
376
377
378
377
376
375
375
374
374
375
378
378
379
379
380
378
376
375
374
372
371
374
377
381
385
385
385
386
386
388
390
391
393
395
397
397
397
397
397
398
399
401
403
406
408
410
412
413
414
415
418
419
418
421
422
423
423
424
426
427
427
427
425
424
423
423
424
423
425
424
423
421
418
416
415
413
413
410
409
406
399
394
391
389
387
385
382
378
374
369
365
362
359
357
356
354
351
350
348
347
348
348
346
344
341
340
338
338
338
339
339
340
339
338
337
336
336
337
334
334
333
333
333
332
334
335
335
336
336
337
337
338
338
339
340
340
341
341
341
341
342
343
343
342
341
341
341
340
342
342
341
340
339
338
338
339
342
343
346
348
347
346
345
343
342
340
339
340
341
342
342
344
343
343
343
345
345
344
343
342
341
340
341
341
339
340
340
342
342
342
343
343
344
344
343
342
342
343
343
343
345
344
345
345
345
345
344
344
344
345
346
346
346
345
344
343
340
340
340
341
343
344
345
345
346
346
346
345
344
342
341
341
343
344
344
345
344
345
343
344
342
344
344
345
345
345
344
343
342
342
341
342
343
345
345
345
345
346
347
346
348
348
347
345
345
345
347
347
348
348
348
346
345
344
344
345
344
345
345
345
346
348
348
348
347
346
344
342
341
343
344
346
347
348
349
351
351
351
351
350
349
349
349
349
348
348
349
351
354
355
354
352
349
348
347
347
350
353
356
358
359
360
363
364
365
367
369
368
368
367
364
363
364
363
363
363
363
360
356
353
351
349
349
347
347
345
344
346
346
348
349
349
348
345
342
341
341
342
343
345
346
346
346
345
345
345
345
346
348
346
345
344
342
344
347
353
367
376
396
419
444
469
492
504
506
497
480
456
417
358
285
213
160
132
130
146
175
210
228
261
292
315
335
349
358
363
365
367
367
367
366
362
362
360
360
358
360
360
361
361
361
361
361
363
363
364
365
367
367
367
367
369
369
372
374
377
376
376
376
375
375
375
377
377
377
377
375
375
375
376
377
378
379
379
378
377
376
377
379
381
384
385
386
386
388
387
390
394
398
399
398
397
394
395
397
400
404
405
407
407
406
406
409
413
415
417
420
421
422
425
426
427
428
429
427
424
422
420
419
419
422
422
422
421
421
421
420
420
419
417
415
413
412
410
408
406
404
401
398
394
390
387
384
381
379
377
377
374
371
366
362
357
355
353
351
348
346
343
341
341
341
342
342
340
340
339
338
336
336
336
336
337
337
337
337
338
338
339
340
343
342
342
340
338
337
337
338
340
343
343
345
344
343
342
342
342
343
343
344
345
345
346
347
348
348
347
346
346
345
345
346
347
349
350
350
349
347
346
347
348
348
348
349
349
349
349
348
347
347
346
346
346
346
346
347
347
346
346
345
344
343
344
343
343
345
347
347
348
347
346
345
344
342
341
341
341
342
343
343
342
343
343
344
344
345
345
345
345
344
345
345
345
346
346
346
345
344
344
344
346
347
348
348
346
347
346
345
345
347
347
347
346
346
345
346
346
347
347
346
347
345
345
345
345
346
347
348
349
348
348
347
348
346
346
346
346
347
345
345
345
347
348
348
348
347
347
347
346
345
345
345
346
347
347
348
348
348
349
349
351
349
347
347
349
349
349
350
351
351
351
351
351
349
348
348
349
349
349
350
350
350
351
351
350
350
352
353
354
356
358
360
362
363
365
365
365
365
367
367
367
367
367
366
364
362
361
360
360
360
360
357
355
352
349
348
347
346
346
345
344
343
343
342
342
343
345
346
344
343
342
342
342
342
343
344
343
344
345
346
346
346
346
345
344
344
343
344
352
365
383
403
428
451
473
489
496
492
480
461
431
383
318
246
183
145
137
137
156
185
219
250
278
301
321
338
351
359
363
364
364
362
360
360
360
360
359
360
360
361
360
361
363
364
364
365
365
367
368
368
369
370
368
368
368
369
369
370
373
375
377
378
377
376
375
375
375
375
375
374
373
373
373
374
376
377
377
378
379
380
382
381
384
385
387
389
389
391
391
392
392
395
397
399
400
402
402
403
404
404
405
405
407
408
409
411
412
413
415
419
421
423
424
426
424
425
426
428
428
428
427
426
425
425
423
423
422
421
420
418
417
416
415
415
415
412
408
405
401
399
396
395
393
391
389
386
383
381
377
374
371
368
365
361
358
355
353
350
350
349
348
346
344
342
340
339
338
338
339
340
341
342
341
341
342
345
346
346
344
342
340
340
340
342
341
342
342
342
341
341
341
342
343
344
344
344
344
344
345
345
346
344
343
342
342
343
344
345
346
346
346
346
347
345
346
347
346
346
345
345
344
344
344
344
345
345
345
345
344
344
344
344
345
347
348
348
348
348
347
346
347
347
346
346
347
348
348
347
347
348
348
348
349
349
348
347
346
347
348
348
349
350
349
349
349
349
351
350
350
351
352
351
350
349
349
349
350
350
350
348
348
349
350
349
349
348
347
347
347
348
349
351
352
351
351
352
350
350
351
351
352
352
352
352
352
352
352
352
353
352
351
351
351
351
351
352
353
354
354
354
353
352
352
352
353
353
354
354
355
355
355
354
355
354
354
355
356
355
354
354
354
354
356
357
358
356
356
357
355
354
355
356
356
357
356
355
356
356
356
358
358
359
358
356
356
355
355
356
358
360
360
361
361
364
365
367
370
370
370
372
371
372
373
375
376
375
374
372
370
368
368
365
364
361
360
357
355
353
354
353
354
355
356
355
355
353
351
351
351
351
352
351
350
351
351
350
351
352
353
352
352
352
352
353
353
354
355
358
359
366
381
401
423
447
469
486
494
490
477
457
429
391
335
304
238
181
147
137
149
174
209
245
279
308
334
353
365
370
372
370
368
364
361
359
358
356
357
358
359
359
359
359
359
360
360
361
362
362
361
361
362
361
363
365
367
368
368
369
370
374
374
376
377
378
377
376
375
375
374
374
375
376
376
377
376
376
374
375
376
377
379
379
380
379
379
379
381
382
384
385
386
387
389
391
392
395
397
398
398
400
401
400
402
403
404
406
409
411
412
414
416
417
419
420
421
422
422
420
422
423
423
423
423
421
420
421
420
420
420
420
420
418
417
416
413
410
408
405
402
400
396
394
390
385
381
377
374
371
368
365
362
358
357
355
354
351
349
346
344
341
339
339
339
338
337
335
334
332
332
332
333
334
334
333
332
331
331
330
332
332
332
333
334
333
333
333
333
333
333
332
332
333
334
335
336
338
338
338
337
337
336
336
335
336
336
336
337
337
337
336
336
336
338
339
339
338
338
337
336
336
335
335
336
336
336
336
336
337
338
338
338
338
338
337
337
337
339
338
337
336
335
335
336
336
337
338
339
339
339
339
338
337
338
338
338
337
337
336
335
335
336
336
336
336
335
335
335
336
337
338
338
339
340
339
337
335
335
335
336
336
337
337
337
337
337
338
339
340
341
340
339
338
338
338
339
340
340
340
340
338
338
337
338
338
338
338
338
338
339
339
339
339
339
340
339
340
338
338
338
339
340
341
342
342
342
341
340
340
340
341
342
343
344
344
344
344
344
344
344
344
344
344
344
345
346
347
347
347
346
345
345
345
345
345
345
347
345
345
345
345
345
347
348
350
351
350
349
348
347
347
347
348
349
350
351
352
352
355
357
359
361
362
361
361
363
364
369
370
368
365
361
357
355
353
354
354
354
353
351
348
346
344
343
342
343
344
344
342
342
343
342
342
343
343
344
343
343
343
344
343
343
343
344
343
344
345
344
346
345
346
348
348
350
357
372
391
415
439
464
475
493
497
490
475
453
424
380
319
250
186
141
123
128
151
185
223
258
291
321
345
361
366
372
372
370
365
362
359
358
357
358
359
357
356
357
359
361
363
365
364
363
361
360
359
359
359
361
364
368
370
371
373
373
374
376
378
379
378
377
376
375
374
374
374
376
376
376
375
374
374
374
376
378
379
378
378
378
379
381
383
384
386
387
388
391
393
395
397
399
400
399
399
400
401
401
404
405
408
410
412
414
414
413
417
419
422
423
425
428
427
428
429
430
431
432
430
430
429
429
428
428
427
428
427
425
421
421
418
416
414
412
410
408
406
402
399
395
391
387
384
380
377
374
372
369
365
363
360
357
355
352
349
346
344
344
344
343
344
343
342
341
341
341
341
341
341
341
340
338
338
339
341
342
342
340
338
337
336
336
337
338
340
340
340
339
339
340
341
343
343
343
343
343
341
340
339
340
342
343
344
345
344
344
343
342
344
345
345
345
345
344
345
346
346
345
344
343
343
342
342
342
345
345
345
345
344
344
343
343
344
344
345
345
345
345
343
343
342
342
342
342
343
343
343
343
343
344
344
345
345
345
343
342
341
341
341
342
343
344
342
344
343
343
344
344
343
343
343
343
344
345
346
346
347
347
345
345
345
345
346
347
348
348
347
345
345
344
344
341
342
343
345
345
345
345
344
343
345
345
345
346
345
344
345
345
344
345
345
345
344
344
343
343
344
345
347
348
348
348
347
347
347
349
350
350
348
347
347
347
348
348
349
350
351
351
351
350
350
350
350
350
350
350
349
350
350
352
354
354
355
353
350
349
349
349
351
353
353
354
353
353
353
353
355
357
357
358
357
358
359
361
362
363
364
365
367
368
369
371
371
372
373
373
374
372
371
370
369
368
367
367
366
363
360
357
354
352
350
351
351
352
352
352
352
351
352
350
349
348
347
347
347
347
346
347
347
349
349
350
351
351
352
354
354
353
351
350
349
350
351
358
370
387
405
426
449
473
493
505
509
501
487
463
421
358
282
211
184
149
141
151
176
208
242
271
296
317
333
347
357
363
367
368
368
367
366
364
364
364
364
365
366
366
367
366
367
365
365
366
367
368
369
370
370
371
372
371
375
377
378
379
379
379
378
378
378
378
380
381
380
380
380
380
379
379
378
377
378
377
377
380
379
381
384
387
389
390
390
390
391
391
393
394
395
395
395
395
395
396
398
400
403
405
405
409
410
411
413
415
418
418
418
419
419
421
423
424
425
427
428
428
428
425
427
428
427
427
427
425
424
423
421
421
419
418
416
415
413
410
407
404
401
397
394
391
389
385
381
378
376
373
370
367
365
361
358
355
352
350
350
349
349
347
346
342
341
339
340
338
337
336
337
336
336
337
337
336
336
336
336
336
337
337
338
339
339
340
339
339
338
337
338
338
339
340
341
343
344
345
346
346
346
344
343
343
343
343
345
347
346
348
348
348
346
346
347
347
348
347
347
347
347
346
346
345
345
346
347
347
346
346
346
346
347
347
347
346
345
343
342
344
347
348
348
348
347
345
344
344
344
344
346
346
345
345
343
343
344
344
345
345
345
344
343
342
341
341
341
341
342
343
342
342
341
342
343
344
344
344
343
343
342
342
342
343
343
342
342
342
343
343
343
344
345
344
344
343
342
341
343
344
345
347
348
345
344
343
344
344
344
345
345
345
344
343
343
342
342
343
343
344
344
344
343
342
342
343
344
344
345
346
346
347
348
349
349
349
349
348
347
348
349
350
350
350
349
349
349
350
348
348
348
348
347
347
348
350
352
354
355
357
360
360
362
363
364
365
366
366
367
366
365
364
363
362
361
360
357
355
353
351
348
346
346
346
346
347
346
346
346
347
347
346
346
346
345
345
344
345
345
346
346
346
345
345
345
344
346
347
349
350
349
349
350
353
358
371
389
409
429
450
471
485
489
486
474
454
427
384
327
261
199
157
140
145
166
197
230
261
291
314
335
350
360
362
364
365
364
362
362
361
360
360
358
358
357
357
358
360
362
363
363
363
362
363
363
363
364
365
367
367
369
369
370
371
373
375
375
376
376
376
375
375
375
375
375
374
375
375
373
374
374
375
378
377
378
378
377
378
378
380
381
382
383
383
385
385
387
388
389
393
393
394
394
395
396
397
399
402
403
406
408
409
411
413
415
416
417
418
418
420
420
421
422
423
421
421
421
420
420
420
421
421
421
420
417
415
412
412
411
410
410
407
403
399
396
393
390
388
386
382
378
373
369
366
362
359
357
355
353
351
350
347
345
344
342
341
339
338
336
336
336
335
335
335
334
334
333
332
332
332
332
333
333
333
333
333
333
332
333
334
333
335
335
334
333
333
333
335
336
337
337
337
335
337
338
338
339
340
340
340
340
340
341
342
343
344
344
344
343
342
342
342
342
342
341
341
339
338
338
340
341
342
342
342
343
342
340
340
340
339
339
341
343
343
343
342
342
340
340
340
340
340
340
341
342
342
340
341
341
340
339
339
339
341
343
344
344
343
342
340
339
339
340
340
341
341
340
340
340
339
341
341
342
342
342
341
340
340
340
340
341
341
340
338
339
339
340
341
342
343
342
341
340
339
339
340
340
341
341
342
341
341
341
341
342
343
343
343
344
343
342
343
342
342
343
343
344
344
345
346
346
347
347
347
348
347
347
346
347
347
348
349
350
350
350
350
351
351
351
351
350
350
349
349
349
349
350
351
351
349
348
348
349
350
351
352
352
353
352
351
349
348
348
348
349
351
351
352
353
355
358
362
364
365
365
365
367
368
367
369
368
366
363
361
359
359
359
359
359
357
355
351
349
348
347
347
348
348
349
348
347
347
347
345
345
344
343
344
345
344
344
344
344
344
343
342
342
343
344
345
346
347
349
351
354
361
373
391
401
423
444
466
479
484
478
463
440
413
370
316
253
195
153
138
143
164
197
233
268
301
316
340
357
367
370
370
366
362
359
358
358
358
360
361
361
361
361
360
359
360
360
361
362
363
363
363
362
364
366
368
371
370
372
374
375
376
377
378
379
379
379
378
378
377
376
376
377
378
378
377
376
376
377
378
381
381
382
381
381
382
382
384
386
387
388
389
389
389
390
391
394
397
399
401
401
401
403
401
401
403
406
409
412
413
416
415
416
417
419
420
423
424
425
426
428
429
429
429
428
427
426
425
424
424
424
423
422
421
419
418
415
413
410
408
405
403
400
397
394
390
386
382
379
375
371
368
364
361
360
358
356
354
352
350
348
347
345
344
343
342
341
340
340
338
338
338
339
339
338
338
337
335
335
335
336
336
337
338
337
335
336
336
337
337
337
337
336
336
336
336
337
338
340
341
341
340
340
340
340
342
343
344
344
343
342
342
341
341
342
341
341
341
340
340
341
341
342
342
341
341
342
343
343
343
344
344
344
343
343
342
341
341
342
343
344
344
344
342
341
340
341
341
343
344
345
344
344
343
343
344
345
345
345
344
343
343
343
344
346
348
348
347
345
343
342
342
343
344
346
346
346
346
344
344
344
344
344
344
345
344
343
342
341
342
343
343
343
343
342
342
342
344
345
346
348
346
346
346
345
345
344
343
343
342
341
342
344
344
345
346
347
347
346
345
344
344
344
344
345
345
346
347
348
347
349
348
348
348
348
347
347
347
347
348
349
350
350
350
350
350
350
350
352
351
350
348
347
347
346
347
348
350
352
352
351
351
349
349
348
349
351
350
350
351
351
350
351
351
352
351
352
352
352
353
354
354
354
353
350
349
349
350
351
354
356
359
360
361
361
362
363
364
364
365
366
367
369
370
368
367
366
365
363
361
361
359
357
355
352
349
348
347
348
348
348
348
348
347
347
346
346
348
348
348
347
347
346
345
347
347
346
346
346
346
347
346
347
348
348
348
349
352
355
360
371
386
397
418
439
460
478
488
486
474
454
428
391
339
275
211
160
132
129
146
175
212
250
288
304
334
356
368
373
373
371
370
366
365
363
362
361
360
361
362
362
363
364
364
363
364
364
364
366
366
367
367
366
365
366
368
371
373
376
376
378
378
378
378
379
379
379
378
376
376
376
377
379
381
380
380
379
378
377
378
379
380
381
382
383
384
384
384
384
385
389
391
392
394
396
398
400
402
404
404
405
406
408
409
412
414
417
419
420
420
421
422
423
425
428
430
432
433
434
434
434
433
433
431
430
429
429
427
427
426
426
426
426
424
423
420
417
414
411
409
407
403
400
396
392
390
388
385
382
378
374
370
367
365
362
360
359
358
356
353
350
348
347
346
347
346
345
345
344
343
343
343
343
343
344
345
344
343
342
341
341
339
340
341
341
341
341
342
341
341
341
341
342
341
341
342
342
344
344
345
345
344
344
344
344
347
347
349
348
348
347
347
347
348
349
350
349
349
348
347
347
348
347
347
349
348
347
346
345
345
346
347
347
347
346
345
345
345
344
344
344
345
346
345
344
343
344
344
346
345
344
345
345
345
346
347
348
347
347
346
345
345
345
344
345
345
346
346
346
346
345
343
343
343
344
344
344
343
343
344
343
343
342
342
342
343
344
345
346
346
346
346
345
344
343
344
344
345
345
344
344
344
344
342
341
341
343
342
342
342
342
342
343
342
343
344
343
343
343
343
343
345
345
347
347
348
348
347
346
346
345
345
345
345
345
345
346
348
348
349
349
348
347
347
348
348
349
349
349
350
349
348
347
348
348
349
349
349
349
348
347
347
347
348
350
349
351
350
350
350
349
349
350
350
351
351
351
352
353
352
354
354
354
353
351
350
351
351
352
352
353
353
354
355
356
357
358
359
360
362
363
364
365
365
366
367
369
372
369
369
366
364
362
361
361
360
359
358
355
352
351
350
350
351
351
352
352
351
350
349
350
350
352
351
351
350
350
350
351
352
352
351
351
349
349
349
350
351
351
351
350
349
350
353
361
374
393
414
438
461
483
501
506
502
491
472
441
387
315
239
176
139
131
135
154
186
221
255
283
308
328
345
357
364
368
369
368
366
364
363
363
363
363
362
362
363
362
363
365
364
365
366
366
366
366
366
367
368
370
372
374
374
375
377
378
378
379
378
377
376
376
377
379
380
380
378
376
376
374
375
377
379
379
379
379
380
379
381
381
385
385
387
388
388
389
390
393
396
398
398
399
399
399
400
401
403
405
406
407
408
408
410
412
413
418
419
421
422
424
425
425
426
427
427
427
426
425
424
424
423
424
424
425
424
422
420
418
416
415
414
412
410
407
405
401
398
395
392
390
388
387
384
380
378
375
373
370
367
364
360
357
354
352
351
350
348
347
346
344
342
342
342
342
342
341
341
340
339
339
339
340
341
341
341
339
338
336
336
338
338
339
340
340
340
341
341
341
342
343
343
344
342
341
341
341
342
344
346
346
347
345
345
345
346
346
347
346
346
343
344
344
345
344
345
346
347
347
347
347
347
348
347
347
346
345
344
344
344
345
345
345
345
344
343
343
343
344
344
344
344
344
342
342
341
341
342
343
344
343
342
341
340
339
341
342
343
344
344
344
343
342
341
341
341
342
343
341
340
340
340
339
340
340
341
340
340
340
341
341
342
342
343
342
341
340
339
338
339
340
340
338
337
338
339
341
343
344
345
344
343
343
342
342
341
341
341
341
341
341
343
343
344
345
346
346
345
343
343
343
343
343
344
344
344
344
344
344
345
346
347
348
348
347
345
344
344
344
345
346
348
347
347
346
346
346
347
348
349
348
348
347
348
349
349
351
352
354
352
352
349
347
347
348
349
351
353
354
355
357
357
358
361
361
360
361
361
363
364
366
367
366
365
362
360
358
357
356
355
353
351
348
345
343
342
341
342
343
343
343
343
343
343
342
341
342
342
343
342
342
343
342
343
344
343
343
343
342
342
342
343
344
345
348
350
354
362
373
388
408
430
454
475
489
493
488
471
447
413
390
331
261
195
150
130
134
156
188
223
256
284
308
327
341
353
360
364
365
365
363
362
360
358
356
357
355
357
358
360
360
360
361
362
363
363
364
365
365
366
367
369
370
370
370
369
370
372
374
375
377
377
377
376
375
375
374
374
374
374
373
373
372
373
373
375
376
377
379
379
379
379
380
381
382
383
383
383
384
384
384
385
388
389
391
393
394
396
397
398
400
403
403
406
407
408
408
410
411
413
415
418
420
422
422
422
422
422
422
421
420
419
418
417
417
416
416
414
412
410
408
408
405
404
403
401
398
395
393
389
385
381
378
376
373
370
367
363
359
356
354
353
352
351
349
346
342
341
339
339
339
341
340
339
338
337
337
337
335
335
335
334
334
334
334
335
336
337
337
336
335
334
335
335
338
338
338
338
337
337
337
338
340
340
341
340
340
338
338
338
340
340
341
342
342
343
343
343
342
342
341
340
339
339
338
339
341
342
343
344
343
342
340
341
341
343
344
345
344
343
343
342
343
344
345
345
345
344
341
340
339
339
340
341
342
343
344
344
343
342
342
341
340
340
340
340
339
340
342
343
344
344
344
342
342
341
341
341
341
343
340
342
341
341
340
339
339
339
339
338
338
338
339
340
341
343
343
343
342
341
341
341
341
341
342
341
340
339
339
341
342
343
344
344
343
343
341
341
342
343
344
343
342
341
341
340
341
341
343
342
342
342
342
341
341
341
342
344
346
345
344
344
343
342
344
344
345
346
346
346
346
345
345
345
345
346
345
344
344
343
344
345
346
347
348
348
348
350
350
349
348
347
345
345
346
347
350
352
355
358
360
361
362
362
363
365
367
368
369
369
367
365
364
361
361
361
360
359
356
353
351
349
349
351
352
351
351
351
349
348
348
347
347
347
348
347
347
348
348
348
348
348
347
348
348
349
349
350
350
352
350
351
352
354
359
371
388
408
430
448
465
479
482
476
461
439
409
390
341
281
218
168
140
137
152
181
215
252
288
318
343
360
370
372
371
367
365
362
361
360
362
362
363
363
363
363
363
362
364
365
366
366
366
365
366
367
368
370
372
374
374
375
375
376
377
380
379
379
379
379
380
380
381
381
381
381
381
380
380
379
380
381
383
382
383
383
383
384
384
386
387
388
389
390
390
390
390
392
395
397
399
401
401
402
402
403
403
403
406
408
410
410
412
414
415
418
421
423
425
426
427
428
429
431
428
429
428
427
427
426
426
426
425
425
422
421
418
417
416
414
412
411
409
407
402
400
396
392
391
389
385
381
376
372
369
366
363
362
359
357
356
353
352
351
351
350
351
350
347
344
341
339
338
339
340
342
342
341
341
341
341
342
341
341
340
338
338
338
340
341
343
345
345
343
342
342
341
342
342
344
345
346
345
345
344
343
344
344
345
345
345
344
344
345
345
346
347
348
348
348
347
347
346
346
345
345
344
343
343
343
345
344
344
344
344
345
346
346
348
347
346
346
346
344
343
344
345
345
346
345
345
343
344
343
344
345
346
347
347
346
345
344
343
345
344
345
345
346
344
343
342
342
343
343
345
345
345
344
343
343
343
343
344
344
343
342
342
342
343
344
345
345
346
344
343
342
342
343
343
343
343
342
342
341
341
341
342
342
342
342
342
342
342
343
344
346
346
346
345
345
344
343
343
344
346
347
347
347
346
346
347
348
348
350
349
348
347
348
347
348
349
350
349
349
348
347
347
347
348
349
349
349
350
349
349
350
350
351
351
350
349
349
348
348
350
350
351
352
352
353
353
352
350
349
348
347
348
350
352
354
355
358
361
363
364
365
364
363
364
366
369
370
370
368
366
363
361
361
361
360
358
356
353
350
348
347
347
347
349
349
348
347
346
346
347
347
347
347
346
345
345
345
345
346
348
347
347
348
349
350
351
352
352
352
352
352
355
360
371
389
412
430
452
473
481
491
489
476
456
429
389
334
268
203
150
123
122
139
171
207
246
283
317
344
362
368
374
374
371
366
362
359
359
359
359
360
360
360
362
364
365
366
367
368
366
366
365
364
364
365
367
366
367
367
368
369
371
373
376
378
380
380
382
381
381
380
379
379
378
378
379
377
376
377
378
382
383
384
383
384
383
384
385
387
388
389
388
390
390
391
394
397
400
403
404
405
405
405
406
407
407
409
410
411
412
414
416
419
422
423
423
425
425
426
429
429
432
432
431
430
430
428
428
426
425
426
425
425
424
422
420
417
418
416
413
410
406
402
398
397
393
392
388
385
381
378
372
370
368
366
365
364
360
360
358
354
353
352
351
349
346
345
343
342
342
342
342
341
341
341
342
341
343
344
344
344
344
344
342
341
340
340
342
342
344
345
344
344
343
343
343
344
344
346
345
345
345
345
345
346
346
347
348
348
347
346
345
347
347
349
350
351
348
347
346
346
347
347
348
347
347
345
344
344
344
344
345
345
345
344
344
344
344
345
347
348
347
345
345
345
344
344
344
344
344
343
343
343
344
344
346
346
346
346
344
343
343
342
343
343
344
344
343
342
340
341
342
343
344
345
344
343
343
344
343
344
344
345
343
343
342
342
342
341
342
342
342
341
341
341
342
342
342
342
342
342
342
342
342
343
343
343
345
344
344
344
345
343
342
341
340
340
340
341
343
343
344
345
346
346
345
345
344
344
344
345
346
346
346
345
343
343
342
344
346
347
347
346
346
347
346
347
347
348
347
347
347
346
345
347
347
348
349
347
346
346
347
347
348
349
349
349
350
350
350
349
349
348
351
351
352
353
354
355
355
357
358
361
363
365
364
365
365
367
369
367
366
364
363
361
359
359
358
356
353
349
347
345
345
345
347
347
348
348
348
347
346
346
345
346
344
343
343
343
343
344
343
345
346
345
345
346
346
347
349
348
349
347
348
350
352
360
374
393
414
436
460
481
496
501
499
491
472
438
382
307
229
166
130
123
137
166
184
219
251
277
301
322
339
352
360
364
365
365
362
360
359
359
360
360
360
361
361
361
362
362
362
362
362
363
362
364
365
367
368
370
370
370
370
372
373
373
375
376
376
377
377
376
376
376
378
377
377
377
376
375
375
376
377
378
379
380
380
380
379
380
381
382
384
386
387
388
389
390
390
392
394
395
396
396
396
397
399
401
403
406
407
407
409
410
411
413
415
416
418
419
419
420
422
424
426
427
426
425
423
423
423
422
422
421
419
417
416
414
413
411
410
409
408
405
404
400
397
395
391
388
384
381
378
374
372
368
366
363
359
356
353
351
349
347
345
344
344
343
342
342
340
340
340
340
340
340
340
339
338
338
337
339
339
339
340
339
339
338
339
339
339
339
339
339
340
341
341
342
343
344
344
344
344
345
345
344
346
345
345
346
346
346
346
346
347
348
349
348
347
345
343
343
344
344
346
346
346
344
342
342
343
344
346
348
348
349
348
347
345
346
343
343
343
344
344
344
343
343
343
344
344
344
343
344
345
345
345
345
345
345
344
344
343
342
343
342
343
344
344
343
342
341
340
340
341
342
343
343
342
342
341
341
342
343
343
343
344
343
343
342
342
343
342
341
341
342
342
343
345
346
345
345
343
342
341
340
340
341
343
343
343
343
342
342
342
342
343
343
340
341
341
342
343
344
345
346
347
345
343
342
343
342
343
344
345
345
345
345
344
344
344
344
345
346
346
346
347
345
347
347
347
346
345
343
343
343
345
349
352
353
354
355
356
358
360
362
364
365
364
364
364
363
363
363
361
359
357
356
355
354
352
351
348
349
347
345
344
343
343
342
343
343
344
344
345
346
346
344
345
344
344
343
343
342
342
343
343
343
345
345
345
344
344
343
344
347
349
356
369
385
405
425
446
466
482
489
484
468
445
412
365
336
271
208
160
137
137
154
183
216
250
279
304
325
340
351
359
363
364
365
362
361
360
358
357
357
357
358
360
360
360
360
361
361
361
363
364
365
366
367
366
367
368
369
369
371
372
372
372
373
374
375
376
376
376
376
375
373
374
375
376
375
375
375
375
376
375
377
378
380
381
382
383
383
383
383
383
385
387
389
391
393
392
393
394
397
399
401
402
403
404
405
406
407
409
410
412
414
416
416
418
420
422
424
426
426
425
424
423
425
424
423
423
423
422
419
417
415
413
413
413
412
410
406
404
400
396
395
391
390
387
383
380
376
372
371
368
366
363
360
357
354
352
350
350
348
347
346
344
344
342
341
341
340
339
338
337
336
335
335
337
336
337
337
338
338
338
338
338
339
339
338
338
338
337
337
338
339
339
341
341
341
341
341
341
341
342
342
343
342
342
342
341
341
342
344
346
347
347
346
345
346
347
347
347
348
346
344
344
344
345
346
348
348
348
347
346
345
346
346
345
346
346
345
344
344
343
344
344
343
343
342
342
343
344
344
345
346
346
346
345
345
345
344
344
345
344
343
341
341
342
343
343
344
345
344
343
342
342
342
341
342
342
342
341
341
340
342
342
343
344
346
344
342
340
340
340
342
342
343
343
342
342
341
343
342
343
345
345
346
345
344
343
343
342
343
344
344
344
345
344
344
344
344
345
345
345
346
347
347
348
348
348
346
345
344
344
346
347
349
351
350
349
349
348
349
348
349
350
349
348
347
347
348
347
349
350
353
352
350
348
346
346
346
347
349
351
352
353
354
357
360
362
364
365
366
365
366
367
368
368
366
365
362
361
358
358
356
355
354
353
351
348
346
345
344
346
348
349
349
349
348
347
345
345
345
345
346
345
345
347
349
349
350
350
350
351
350
351
349
348
348
349
353
355
361
366
380
399
419
439
461
479
487
481
466
444
415
376
324
262
202
156
135
136
155
187
224
244
281
313
339
358
367
371
372
369
367
366
364
362
360
360
362
363
363
366
366
366
366
366
367
367
368
368
367
367
367
366
366
368
371
373
375
375
377
376
376
378
379
379
380
380
379
378
377
377
378
379
380
380
380
380
380
381
381
382
383
382
382
382
382
382
384
388
389
390
392
393
393
394
396
398
400
401
402
402
403
404
406
408
411
414
416
418
420
419
420
420
422
423
424
424
426
427
428
428
428
428
427
428
427
425
424
423
423
421
420
418
415
411
408
405
403
402
401
398
395
392
386
382
377
373
370
366
366
364
361
357
354
352
349
347
344
343
340
341
341
340
339
339
338
338
336
336
336
336
336
336
335
336
336
335
337
336
337
338
339
339
340
338
338
339
340
340
340
340
339
338
338
339
340
341
342
343
343
342
342
342
342
342
342
343
344
345
345
345
344
345
346
348
346
345
345
346
346
347
347
347
347
347
344
345
344
344
345
346
347
347
347
348
347
347
348
347
347
347
346
345
344
344
345
345
346
346
346
345
341
342
342
344
346
346
347
348
346
345
344
343
343
343
344
345
343
343
341
341
341
343
344
345
344
344
342
343
341
342
343
343
345
343
343
342
343
343
344
344
343
344
345
345
345
344
345
345
344
344
344
343
343
341
343
345
345
344
344
343
343
344
345
346
347
345
345
343
343
343
343
345
345
345
345
344
345
344
345
347
348
349
350
350
350
349
349
350
350
351
350
350
349
348
347
348
349
350
351
352
351
352
350
349
348
348
347
350
352
354
356
358
358
359
363
363
364
364
365
365
366
368
369
370
367
366
363
362
361
359
357
355
353
352
351
349
349
348
349
350
350
349
349
347
348
348
349
349
347
346
346
345
345
347
348
347
346
346
345
344
344
346
347
348
349
349
349
352
360
375
397
422
444
467
486
495
496
487
471
448
417
368
306
236
174
132
117
125
150
186
224
263
299
329
351
363
371
370
369
367
362
358
355
355
355
356
357
358
359
360
358
359
360
361
362
362
362
362
361
361
363
364
364
365
367
369
370
372
375
377
379
380
380
379
378
377
377
378
378
380
381
381
381
381
380
379
380
381
382
383
383
383
383
383
384
386
387
389
390
391
392
393
396
397
399
400
401
401
403
405
407
410
411
411
412
411
414
416
418
420
422
423
425
427
427
428
430
432
432
431
430
429
426
425
424
424
425
425
423
421
419
416
415
411
411
407
404
401
397
392
388
384
380
377
372
368
363
360
358
357
356
355
354
351
348
346
344
342
340
339
338
337
335
334
334
335
336
338
338
338
337
335
334
335
335
336
338
339
339
338
337
336
336
337
337
338
339
340
340
339
339
340
340
341
342
342
342
341
341
341
341
340
341
341
341
341
341
341
343
344
344
345
344
343
343
343
344
344
344
344
344
344
344
344
345
345
345
346
345
343
342
342
343
345
346
346
346
345
344
343
342
341
340
341
341
342
342
342
343
344
344
344
343
344
341
341
340
339
340
341
342
343
344
344
344
344
343
343
344
343
344
343
343
343
345
346
346
346
345
344
343
343
343
344
345
346
346
345
343
342
341
341
343
345
345
343
343
342
342
342
342
343
344
342
342
343
345
346
346
347
347
347
346
346
344
343
343
344
344
346
345
346
344
343
345
345
346
348
349
349
348
347
347
348
348
349
351
350
349
349
349
349
351
352
353
352
351
350
349
347
348
351
353
355
356
358
360
360
362
363
363
363
364
365
367
367
367
366
364
362
361
358
356
356
353
351
351
349
348
348
348
348
348
349
350
352
351
350
348
346
345
345
346
346
347
347
347
347
346
346
347
348
349
349
347
347
345
345
346
349
352
355
364
379
398
418
443
469
490
504
508
501
486
463
426
367
292
214
157
127
123
139
169
187
224
258
287
310
329
344
354
362
366
369
369
369
366
363
361
360
359
361
360
361
361
362
364
364
366
366
367
367
366
365
364
364
367
369
371
372
374
374
375
376
376
377
377
379
379
379
379
377
377
377
376
376
376
376
377
376
378
380
383
383
385
386
386
386
386
388
388
390
393
394
395
396
396
397
399
401
404
406
407
407
407
408
409
413
412
414
416
418
419
421
422
423
424
426
427
428
428
428
428
428
429
429
429
427
425
425
422
421
422
421
421
419
417
414
409
405
402
399
397
393
390
385
382
379
377
373
370
368
365
362
359
357
355
352
352
350
347
345
342
341
339
339
338
337
335
334
335
335
336
336
336
337
337
337
337
336
336
336
337
338
338
337
336
335
336
335
335
336
337
337
338
339
341
343
344
344
344
344
344
342
344
346
348
348
349
348
348
346
345
346
345
345
344
344
344
345
345
346
347
347
347
347
348
349
347
347
346
345
346
346
347
347
347
347
346
346
346
346
347
347
347
346
345
345
345
345
346
346
346
346
345
344
344
344
344
344
345
344
344
342
342
340
340
340
342
340
341
341
343
342
343
344
345
344
343
343
343
343
344
344
345
345
344
343
342
341
341
342
343
344
344
343
342
340
340
341
341
344
344
345
345
345
344
345
346
344
344
343
342
342
342
343
345
345
344
343
343
342
343
344
347
347
347
347
346
345
346
348
349
349
349
347
348
348
350
353
355
356
359
359
360
361
362
364
365
365
365
365
364
363
362
361
360
359
358
358
356
354
352
350
348
347
348
349
350
349
348
347
343
345
345
346
347
347
346
346
346
346
346
347
347
347
346
346
346
346
347
349
349
349
348
346
348
349
354
365
381
398
418
438
460
480
493
495
492
478
456
425
377
313
243
182
145
133
143
167
199
235
267
296
321
341
354
362
365
367
367
367
367
366
365
364
362
361
359
360
361
363
364
364
363
362
362
363
364
365
366
368
368
369
371
370
372
374
375
376
377
377
377
377
377
378
379
379
379
378
378
378
377
377
377
379
380
381
381
382
381
381
383
385
385
386
386
386
386
387
389
392
391
392
394
394
396
396
398
401
403
406
407
408
408
408
410
413
415
418
419
419
420
422
423
426
429
430
431
430
430
427
426
425
426
426
425
424
421
419
417
415
414
411
408
407
403
399
396
393
389
386
384
380
375
371
366
363
361
359
356
353
349
346
344
342
341
341
343
342
342
340
338
337
336
336
337
336
336
335
334
333
333
334
334
336
337
337
337
337
337
336
337
337
337
337
338
336
335
334
334
335
337
338
338
339
340
339
341
341
342
341
339
339
340
341
342
343
344
344
343
343
342
342
342
344
344
345
345
344
344
343
344
345
344
346
347
346
345
344
343
343
343
344
344
345
344
345
345
345
344
344
344
344
343
343
343
343
344
344
345
346
346
345
345
345
346
347
348
347
346
345
344
343
342
342
342
341
343
344
344
343
344
345
345
346
346
346
345
344
343
343
342
342
342
343
343
343
343
343
345
345
347
348
346
346
345
344
344
344
344
343
343
343
344
344
344
346
346
346
345
344
343
343
343
344
345
345
347
347
346
346
344
344
345
345
346
346
347
348
348
348
348
349
348
347
345
344
342
342
344
347
351
355
357
359
360
363
362
362
363
363
363
364
364
364
362
363
362
362
358
358
356
354
353
352
351
350
348
347
345
343
343
341
342
343
344
345
345
345
344
344
345
346
347
347
346
345
345
344
344
344
345
346
347
347
347
347
348
349
352
356
362
374
390
410
431
453
472
485
487
476
467
446
417
375
320
257
195
150
130
132
150
182
219
259
295
327
351
365
371
371
367
365
361
358
357
356
357
357
358
359
360
360
361
361
361
361
362
362
364
364
364
363
364
363
364
366
368
369
370
371
372
373
374
376
377
378
377
377
377
376
376
377
379
379
379
379
379
377
375
376
378
380
382
383
384
386
384
386
387
389
389
390
392
392
394
395
397
399
401
403
404
404
406
405
406
408
411
413
415
416
417
420
422
424
428
428
429
430
428
428
427
427
428
429
429
429
428
426
424
422
421
421
419
416
414
410
407
405
402
400
397
393
389
386
379
375
371
368
367
365
362
359
355
353
349
346
345
344
343
342
340
338
337
336
337
337
337
337
338
336
335
335
336
337
337
337
336
335
333
333
334
333
334
335
336
335
335
334
333
334
335
335
336
335
335
334
335
336
338
339
340
341
341
343
342
342
342
342
343
342
341
340
340
340
341
342
343
343
342
342
341
341
341
341
341
341
341
341
341
341
341
342
341
342
344
343
343
344
343
343
343
343
343
342
341
341
342
342
345
343
343
341
340
340
341
342
343
343
343
342
341
339
339
339
340
341
341
341
341
341
340
340
341
340
340
340
339
339
339
339
340
341
342
343
343
342
341
341
341
342
343
344
344
343
343
343
343
343
344
343
344
342
341
341
341
342
342
342
342
342
342
341
342
340
342
342
344
343
343
344
344
343
344
344
344
344
343
343
343
342
343
344
345
346
347
347
346
346
345
345
346
347
346
345
345
344
344
346
348
348
349
349
349
348
348
346
345
345
344
344
345
347
349
351
353
355
358
359
359
360
360
361
362
363
365
366
365
362
361
357
357
357
356
354
352
349
347
345
344
345
345
344
345
345
345
347
346
346
346
345
344
343
343
342
340
340
342
344
344
344
343
342
341
342
343
343
345
345
345
345
347
349
356
370
390
411
434
460
482
497
501
492
477
451
416
364
296
260
193
144
122
123
142
174
210
248
285
318
344
360
368
369
366
363
360
358
357
358
357
357
355
356
356
358
359
360
360
360
361
360
361
363
364
365
365
365
365
366
367
368
370
371
373
374
374
374
375
375
376
376
377
378
378
378
377
378
380
382
384
384
384
383
382
380
380
381
383
385
387
388
389
390
391
393
395
397
400
402
403
404
404
404
404
405
407
409
411
414
415
417
419
421
423
423
424
425
425
427
430
432
432
432
432
432
433
431
432
433
433
431
429
427
423
423
420
418
418
416
415
413
410
406
401
397
394
390
385
381
379
376
372
369
367
364
362
359
356
352
350
348
348
347
345
345
344
342
341
340
340
341
342
342
341
342
340
340
340
341
340
339
338
338
337
337
338
341
342
343
344
343
342
342
342
342
343
346
345
346
346
346
346
346
345
345
345
345
345
344
344
345
346
347
348
349
350
348
348
348
348
347
348
348
347
345
344
345
346
347
347
348
348
347
346
346
346
346
347
347
347
348
346
345
344
344
344
344
344
345
347
346
345
345
344
344
344
344
344
343
343
343
343
343
344
343
343
342
342
343
345
346
347
346
345
344
342
342
343
342
344
344
346
345
345
345
346
346
346
345
347
347
347
347
347
346
346
346
345
344
343
343
344
345
346
347
348
348
346
345
344
344
345
346
346
345
343
343
343
342
344
346
347
348
347
346
346
346
347
347
348
348
347
348
347
347
347
347
349
349
349
350
351
351
352
352
351
351
351
350
349
349
349
351
351
350
353
353
353
353
353
352
351
351
352
354
356
357
358
357
358
359
361
365
366
366
366
368
368
370
371
372
371
370
368
365
365
363
362
361
359
356
354
353
353
353
354
354
354
354
353
353
353
353
353
353
353
354
353
352
352
351
351
352
352
352
351
351
351
350
350
350
350
348
351
352
356
366
379
398
419
442
466
488
504
510
508
498
479
449
396
323
244
180
142
134
135
155
185
218
250
277
300
319
336
349
359
365
368
368
366
363
361
360
360
361
361
361
361
360
360
361
362
363
363
362
363
363
364
365
367
367
368
367
368
367
368
369
370
372
374
374
373
373
373
372
373
374
375
376
376
375
374
374
375
378
378
379
379
379
380
380
381
383
384
386
388
390
391
391
392
392
392
394
394
397
398
399
400
402
403
404
406
408
411
412
414
416
417
419
420
422
424
425
426
427
428
429
428
428
426
422
423
422
422
422
422
420
417
417
413
411
411
408
406
403
399
395
390
387
385
383
381
379
378
374
370
366
362
359
356
353
350
348
347
345
345
345
343
342
341
340
339
339
338
338
337
338
337
337
337
336
335
335
336
336
337
338
338
339
337
337
338
338
339
340
340
340
340
339
339
339
340
342
344
345
346
345
344
344
344
344
345
345
346
347
346
348
346
348
348
348
346
345
345
344
345
346
347
347
347
347
347
348
347
348
348
347
347
347
346
346
347
348
350
350
351
349
348
347
346
346
349
350
350
350
349
348
347
346
346
346
346
346
346
346
346
345
345
345
344
345
344
343
343
343
343
344
344
344
342
342
342
342
342
343
344
344
343
342
342
342
342
343
344
345
344
344
344
345
344
346
348
348
347
345
344
343
344
346
347
348
348
348
346
346
346
347
348
348
348
347
345
344
344
343
343
344
345
347
346
345
344
344
344
346
346
345
344
344
343
344
344
346
348
350
351
352
351
352
349
348
346
347
347
350
352
354
355
357
359
361
362
361
360
360
360
363
365
367
367
365
362
360
358
357
356
355
355
352
349
346
345
344
344
345
346
346
347
345
343
343
343
344
343
345
345
345
345
345
344
344
345
347
346
346
346
347
346
346
347
347
348
349
352
357
369
386
407
427
447
467
481
485
477
462
440
411
366
307
239
208
158
131
130
147
177
214
249
282
309
332
348
359
364
365
363
361
358
356
355
354
354
355
356
357
358
357
358
359
361
363
364
365
365
365
365
365
366
366
366
366
366
367
368
370
373
374
375
375
373
373
372
372
372
373
373
373
374
374
374
375
375
375
377
377
377
378
379
381
383
385
388
389
390
390
389
388
387
388
391
392
394
396
397
399
400
401
403
404
406
407
408
408
410
412
414
418
420
421
422
422
422
424
426
428
430
430
429
428
426
423
422
421
420
418
417
415
412
410
408
407
406
402
398
394
390
385
381
379
376
372
369
366
364
359
356
353
354
352
351
348
345
343
341
340
341
340
340
339
339
338
337
336
336
337
337
337
337
336
335
334
334
335
335
335
335
335
336
335
336
337
337
338
337
338
337
337
337
337
338
340
340
340
340
340
339
340
339
341
342
342
341
340
340
340
342
343
344
345
346
344
343
343
345
343
343
343
341
341
341
341
341
341
341
341
341
341
340
340
340
342
343
344
344
343
341
340
339
340
339
341
342
343
344
343
345
344
344
345
346
346
344
342
341
341
341
342
343
343
342
342
342
343
342
342
343
343
343
343
342
342
342
342
343
343
343
344
343
343
344
342
344
344
344
343
343
342
342
342
344
344
345
345
345
345
344
345
345
345
345
346
345
345
345
344
345
347
348
349
347
345
344
344
344
346
347
348
347
346
345
345
345
345
347
347
347
347
347
347
346
347
348
349
348
348
346
346
347
348
350
351
352
350
349
348
349
349
350
351
351
351
350
349
348
348
349
351
353
355
354
355
355
357
359
361
362
365
365
365
366
367
367
367
367
365
365
363
361
359
358
356
355
353
351
349
347
347
347
348
350
351
351
350
349
348
346
346
346
347
348
349
349
348
348
349
349
350
352
351
351
349
350
347
348
349
350
353
357
366
383
403
426
449
473
488
497
494
480
460
431
391
334
266
200
151
126
123
133
160
196
234
272
305
333
353
365
371
372
371
367
363
360
359
357
358
360
361
362
361
363
361
362
361
362
363
364
364
364
364
364
365
367
369
372
372
372
373
372
372
372
373
375
377
377
376
376
374
374
375
375
375
376
376
376
375
375
376
378
379
380
381
382
384
385
386
388
390
390
391
391
392
393
395
397
399
401
402
402
402
403
404
406
407
409
412
412
414
418
418
420
423
425
427
429
428
429
430
432
431
432
432
431
431
430
429
427
426
425
424
422
421
419
415
412
409
405
403
401
399
394
390
386
382
378
377
372
368
364
360
356
352
351
350
349
349
347
345
343
340
339
339
338
338
338
338
336
336
334
335
335
336
337
337
336
335
335
334
334
334
335
335
334
335
335
335
337
339
339
341
340
340
338
339
340
341
342
344
344
344
342
342
343
342
344
344
343
343
341
340
339
339
340
342
342
343
342
342
342
343
344
344
343
341
340
339
338
341
341
343
344
344
343
341
339
339
339
339
340
341
342
340
339
339
338
338
339
340
341
342
342
343
344
343
343
341
340
338
337
337
337
337
337
339
340
340
340
339
339
339
340
340
339
339
337
337
337
337
339
341
342
344
342
341
340
339
339
339
339
339
340
340
341
341
341
342
344
343
344
343
343
344
343
344
344
344
345
343
342
341
341
341
342
342
342
342
341
342
344
345
346
348
349
347
349
346
346
345
344
344
344
345
345
346
347
345
346
346
345
345
344
344
345
345
346
347
347
349
349
349
350
350
349
349
349
350
350
350
348
348
348
349
351
352
353
351
350
348
348
349
351
354
356
357
357
358
359
360
362
364
365
367
368
370
370
370
368
366
365
363
363
362
359
356
353
352
351
350
349
349
349
349
349
349
349
350
350
350
348
347
346
346
347
349
349
350
351
350
349
348
348
349
350
350
351
351
351
351
352
355
358
365
379
398
421
445
470
492
507
509
500
483
460
425
401
339
267
199
151
128
130
150
183
220
257
291
319
343
359
368
372
372
372
372
368
367
364
364
363
363
364
367
367
367
366
366
366
367
368
370
372
371
371
370
370
371
372
374
376
377
378
379
379
380
381
382
383
382
382
381
381
380
382
382
384
385
385
385
385
384
384
384
386
387
388
389
389
389
389
390
392
392
395
398
399
401
403
404
405
406
407
408
409
409
410
412
414
416
418
419
420
422
423
424
426
429
429
431
432
434
434
433
434
435
435
435
434
433
430
428
426
425
424
422
422
418
415
413
410
407
404
401
399
395
393
388
385
381
378
375
372
370
367
363
359
357
355
352
351
349
347
344
342
341
340
340
341
341
341
341
338
337
337
339
339
340
339
339
338
337
337
337
338
338
338
339
338
339
339
339
339
339
339
341
340
340
340
341
342
343
343
343
342
341
340
340
340
342
343
344
344
342
341
343
343
342
344
345
343
341
340
340
342
342
344
346
345
345
344
344
343
344
344
343
343
343
341
341
341
343
342
342
342
341
340
338
338
340
340
340
341
343
344
344
344
344
343
343
343
343
342
341
340
340
340
341
342
343
341
341
340
340
339
340
340
340
340
338
338
338
339
340
342
344
343
343
341
340
340
338
340
339
340
340
339
339
339
340
342
343
342
341
340
339
338
340
340
341
341
340
339
338
338
338
340
341
343
344
344
344
342
342
342
342
343
344
344
343
342
341
342
342
343
344
345
345
344
344
343
343
345
346
348
348
347
347
346
344
344
344
344
344
344
345
346
347
348
349
349
348
347
346
346
347
348
349
351
352
353
354
353
354
352
352
353
354
355
355
356
356
356
358
361
364
365
365
365
365
366
367
368
368
367
365
362
359
357
355
356
355
354
352
350
348
346
346
346
347
347
346
345
345
344
343
344
345
347
347
347
347
346
345
343
343
343
346
346
347
346
346
346
345
345
345
346
347
350
360
372
391
411
423
447
470
488
499
499
491
476
448
402
338
262
192
146
127
133
155
187
221
252
278
289
309
327
340
351
358
362
363
361
359
356
353
353
351
352
353
355
356
358
359
360
361
361
363
361
361
362
364
365
367
369
370
369
369
370
371
372
375
376
377
378
379
377
377
376
375
375
374
374
375
373
373
374
377
377
381
383
383
383
383
383
384
385
388
388
389
391
389
390
391
392
394
396
397
397
397
397
399
401
404
407
410
412
413
414
415
417
420
422
424
424
426
426
427
426
427
426
426
425
424
424
423
422
421
420
419
417
416
413
410
409
410
408
407
404
400
396
391
387
382
378
376
374
371
368
365
362
359
359
355
352
349
347
344
341
339
337
338
340
340
340
339
336
335
336
336
337
337
336
335
334
332
333
333
335
336
336
336
335
336
337
337
337
338
337
337
337
338
338
339
340
340
341
341
340
341
342
343
343
345
345
345
344
344
344
345
344
346
345
344
342
341
341
342
343
345
346
346
347
345
343
342
342
343
344
345
345
344
344
344
344
344
345
345
344
345
344
343
343
344
345
345
346
346
344
344
343
343
344
344
345
345
345
345
345
345
344
345
345
345
343
341
340
338
337
338
340
342
343
343
343
344
341
342
342
342
342
342
341
341
341
342
342
343
345
344
344
344
343
343
343
344
344
343
343
341
341
340
341
342
343
343
343
342
342
344
344
344
345
344
343
342
342
342
343
344
344
345
344
344
343
343
342
344
345
345
344
345
345
345
345
346
348
349
348
347
346
346
346
347
348
348
349
349
349
348
347
348
348
348
350
349
349
350
351
349
350
350
351
351
351
350
350
349
349
349
349
348
347
347
348
350
353
355
357
358
359
360
361
361
361
363
365
367
370
370
368
366
363
361
361
363
361
362
359
356
352
350
347
347
347
347
347
348
348
346
345
345
346
346
348
349
349
348
348
347
348
346
347
347
348
347
348
349
349
350
350
350
350
350
352
355
363
378
399
419
440
461
479
489
487
474
455
429
391
338
274
242
184
147
136
144
167
199
234
268
300
328
348
363
370
372
370
368
364
362
361
361
361
360
360
359
360
362
365
364
364
364
364
365
365
366
368
368
369
369
370
369
369
370
370
371
373
374
376
377
377
377
377
378
378
377
376
376
376
377
377
378
379
379
380
381
379
382
382
383
384
384
386
387
387
386
387
389
390
392
393
393
394
394
395
397
399
401
404
405
408
408
408
410
413
415
418
420
421
422
423
424
426
427
428
430
431
428
427
427
427
427
425
423
422
420
419
418
417
416
414
412
409
406
404
401
397
393
390
389
386
383
378
374
370
368
364
361
359
356
354
352
351
350
349
348
347
345
343
342
342
341
341
341
341
341
342
340
340
341
341
342
341
340
338
337
337
338
340
340
341
341
342
340
340
339
339
339
341
342
343
343
343
342
343
343
344
345
346
346
347
348
347
347
347
347
348
348
347
346
346
345
345
346
347
348
348
348
347
347
345
347
348
349
350
349
347
347
346
347
348
349
348
348
347
346
347
346
347
348
348
347
346
344
345
344
345
346
348
347
348
348
348
348
348
348
348
348
347
346
346
346
346
347
347
347
347
346
345
344
344
344
345
347
347
347
346
347
346
346
346
346
346
345
345
346
346
348
349
349
349
348
347
346
345
345
345
347
348
348
347
345
344
343
344
345
346
346
346
346
346
346
347
347
348
347
348
348
347
346
346
347
347
347
348
348
348
347
347
348
349
350
349
349
349
348
348
348
348
349
347
347
346
348
347
348
348
349
348
349
347
348
348
350
352
353
353
351
350
349
349
350
350
352
353
353
352
351
351
350
351
352
352
353
353
352
352
352
352
351
349
348
348
349
350
352
353
355
357
359
361
363
364
365
366
366
369
371
372
371
369
365
361
359
359
359
359
358
357
354
351
349
348
348
349
349
349
349
349
348
348
349
349
347
346
346
347
347
349
349
350
350
350
350
351
350
350
350
351
352
353
353
354
356
358
365
379
397
420
442
464
482
493
493
481
463
438
403
352
321
254
192
149
131
136
157
190
226
263
298
329
354
368
377
376
373
368
364
361
360
361
362
362
363
364
365
365
366
367
368
368
367
366
364
362
363
364
368
369
371
373
372
374
375
376
376
377
378
379
379
379
379
379
377
377
377
377
376
377
378
378
378
379
380
381
381
380
382
382
383
386
387
388
388
388
387
388
390
393
396
398
399
398
398
398
399
401
404
406
407
409
409
411
412
415
417
419
421
423
425
426
426
427
427
429
429
430
428
428
426
425
425
425
425
425
424
422
419
418
415
415
413
410
407
403
399
396
395
390
386
382
378
372
368
365
364
361
359
357
354
352
350
349
347
345
344
343
343
342
340
338
339
339
340
340
341
340
339
337
336
336
337
338
338
339
338
337
336
336
336
337
338
340
338
339
339
339
338
338
339
341
341
342
342
342
341
341
343
344
343
343
343
342
343
345
346
346
347
346
345
345
347
346
346
347
347
347
346
345
344
343
344
344
345
346
346
346
345
344
345
346
347
347
347
347
346
346
346
346
345
344
343
343
343
343
345
346
348
349
350
349
347
345
344
344
343
343
345
346
346
346
345
345
345
345
346
344
345
345
344
344
344
345
345
346
345
344
345
343
344
345
345
346
345
344
343
342
342
343
344
344
343
344
344
344
345
345
344
344
343
343
343
342
343
344
345
345
345
346
346
345
345
345
346
347
346
347
347
346
346
345
346
347
348
348
348
347
347
347
347
346
349
348
348
349
349
349
350
349
351
350
349
347
348
346
347
348
348
349
349
349
349
349
349
350
351
351
349
350
349
349
349
348
349
349
350
349
350
349
349
349
350
352
353
354
354
353
352
351
351
352
352
351
351
349
349
351
353
356
357
358
359
360
360
360
361
363
367
367
368
368
367
366
364
363
362
361
360
359
358
355
353
351
350
350
348
348
348
348
348
348
349
349
349
349
349
348
348
348
348
348
348
348
348
347
347
346
345
346
347
348
349
349
349
350
351
355
360
372
389
410
431
454
476
494
502
499
493
476
452
418
363
294
224
166
133
127
141
169
205
242
278
309
336
355
368
372
373
372
370
368
367
366
365
365
364
364
366
366
368
367
368
369
369
369
370
370
371
370
371
372
371
371
372
373
373
375
377
377
378
378
378
379
379
379
379
380
380
381
383
383
383
384
384
383
383
382
382
383
384
384
385
386
387
388
389
391
392
394
395
396
399
398
400
401
402
402
403
404
405
406
407
408
409
411
414
418
421
423
424
425
426
428
429
431
433
434
435
434
433
433
432
430
430
429
428
425
423
422
421
420
419
417
413
410
409
407
403
400
397
394
390
386
382
378
376
371
368
365
362
359
357
355
354
353
351
351
349
347
346
343
341
339
339
340
340
341
340
339
338
338
338
339
339
340
340
339
338
337
335
336
336
336
337
338
338
339
340
341
342
342
342
342
341
341
342
343
344
345
344
344
344
343
343
343
344
345
346
346
346
346
347
346
346
346
345
346
346
345
345
345
345
344
346
346
347
346
345
344
343
344
345
347
346
345
344
343
342
342
343
345
346
347
346
345
344
344
344
344
345
344
344
345
344
344
345
344
345
344
343
342
341
340
340
341
343
344
345
344
344
344
345
345
346
345
343
342
343
342
342
344
345
346
347
346
346
344
344
345
346
346
345
344
342
341
341
344
346
346
345
345
344
344
344
345
346
345
345
345
345
344
344
344
344
346
346
347
348
347
346
345
345
346
347
348
348
347
347
346
346
347
347
347
347
347
346
347
348
348
349
349
349
351
348
347
347
348
349
350
351
351
351
350
349
348
349
349
350
350
350
350
348
348
349
349
350
352
351
351
351
351
350
352
351
351
352
353
352
351
351
351
353
354
356
357
357
358
359
360
362
362
363
361
363
364
365
366
365
364
363
362
359
356
355
353
351
350
348
345
344
342
342
342
342
344
344
343
342
341
339
340
340
341
342
342
343
342
342
343
342
343
344
345
345
344
345
345
345
346
346
348
350
356
365
379
396
416
440
464
484
498
499
492
478
454
435
386
317
241
175
136
125
135
160
195
230
260
285
305
321
336
347
355
361
363
365
364
362
359
357
356
358
357
358
359
359
359
361
361
363
365
366
365
365
366
367
369
369
370
371
372
372
373
375
377
378
379
380
379
379
377
376
375
375
377
378
379
378
379
379
378
378
379
380
380
381
382
382
383
386
389
390
391
390
389
388
388
389
390
392
393
394
395
396
396
397
398
400
402
404
405
406
408
410
413
416
419
421
420
423
422
422
422
423
424
425
426
425
423
421
422
419
418
416
415
414
412
410
407
404
400
397
395
394
390
387
384
381
378
375
372
368
363
359
356
354
351
350
348
348
345
342
340
339
339
339
339
339
339
338
336
334
334
334
335
336
336
335
334
334
335
336
337
337
336
338
338
337
337
336
334
336
336
336
337
337
338
337
337
337
339
339
341
341
341
343
343
343
343
344
343
342
341
341
341
341
341
342
342
343
342
341
342
342
344
344
344
343
342
340
340
341
343
347
347
347
346
345
343
343
343
342
342
342
342
341
341
341
341
342
343
344
343
342
342
342
343
344
347
346
346
344
343
341
340
341
341
341
341
340
339
337
338
339
340
343
343
342
342
341
342
341
341
341
341
341
340
340
339
340
341
343
343
344
343
342
341
340
341
342
343
343
342
342
340
340
341
342
342
343
343
343
343
343
342
343
345
344
344
344
343
343
342
344
343
344
344
344
344
344
344
345
345
344
344
344
344
345
345
345
346
346
346
346
346
346
345
345
345
346
347
348
349
349
348
348
347
346
347
348
349
348
348
348
348
350
350
352
352
350
345
343
342
344
348
352
354
356
357
359
361
364
367
366
367
367
367
367
367
367
365
365
364
362
362
359
357
355
354
352
350
347
348
347
347
347
346
346
348
347
347
346
345
344
343
344
345
346
346
344
344
342
340
341
342
344
346
347
347
347
346
347
349
352
358
371
387
406
427
448
470
478
488
486
474
453
427
390
340
276
211
161
134
132
147
176
210
247
283
314
338
354
364
366
368
367
364
362
360
358
359
358
358
359
360
361
362
362
361
362
365
365
365
365
366
367
367
366
366
367
367
368
369
371
373
374
375
378
378
380
381
381
379
377
376
375
375
375
376
377
379
380
381
382
384
384
386
387
389
388
387
386
386
387
389
390
392
393
394
395
396
397
398
400
402
404
405
406
406
406
407
410
411
413
414
414
415
417
418
422
425
429
428
429
428
429
429
428
428
427
426
425
423
422
420
418
417
416
413
412
409
406
404
402
399
396
393
388
383
379
376
372
369
366
363
360
357
354
353
351
350
350
351
349
347
345
342
340
339
340
340
339
339
338
336
338
337
338
339
338
339
340
340
339
339
339
339
339
338
338
338
339
338
338
339
340
341
341
342
342
340
340
340
341
341
341
342
343
344
344
345
346
346
345
345
344
345
344
346
347
347
346
345
345
345
345
345
345
346
346
346
345
344
342
342
343
344
345
346
347
347
347
347
347
347
347
347
347
347
346
345
345
345
345
346
347
347
348
346
346
347
348
348
348
346
346
345
344
343
345
346
347
347
346
345
344
344
344
344
344
343
343
344
344
344
345
345
346
346
345
345
344
344
345
346
346
347
349
349
347
346
346
346
347
347
347
346
344
343
343
343
345
345
346
346
346
346
346
347
347
347
346
345
345
344
344
345
347
348
348
347
348
347
347
347
348
349
349
350
349
348
347
348
349
350
351
350
350
349
347
347
346
347
348
349
348
348
348
348
348
348
349
350
350
351
349
349
349
349
350
351
352
351
349
350
349
350
350
350
351
351
353
355
358
359
361
364
365
367
369
367
366
366
366
367
367
369
369
366
364
362
359
357
356
356
356
354
353
352
351
351
350
349
349
349
347
346
346
346
346
346
347
347
346
347
345
346
345
346
347
347
346
346
345
345
346
347
348
349
349
350
353
358
370
387
409
430
451
473
489
496
491
478
458
428
384
322
250
184
159
125
120
135
164
200
238
275
309
336
356
367
372
372
368
363
360
358
358
359
360
360
361
361
361
361
362
364
365
365
365
365
365
366
367
369
370
371
370
371
371
372
373
374
375
377
380
380
381
381
380
379
379
379
380
381
382
383
384
384
385
386
389
388
388
387
386
387
388
389
390
390
391
393
394
395
396
397
398
399
401
402
403
404
405
407
408
410
412
415
417
419
420
421
423
425
426
428
429
430
431
432
433
434
432
434
433
432
431
429
428
426
426
426
425
426
426
423
421
417
413
410
407
402
398
394
391
387
385
381
378
376
372
369
367
364
361
358
355
351
349
346
346
346
346
344
343
341
339
338
338
338
339
340
339
339
338
338
336
337
339
341
342
342
341
341
340
339
339
340
338
339
339
338
338
339
341
343
344
345
345
344
343
342
342
343
345
345
346
345
345
345
345
347
346
346
346
347
347
347
347
347
347
347
346
346
346
345
344
345
345
347
347
347
346
345
345
344
345
346
347
347
346
345
343
342
342
342
342
343
344
345
345
346
345
345
345
345
344
344
344
344
345
345
345
345
345
344
344
343
342
343
344
345
345
344
345
343
342
342
343
343
343
344
345
345
344
344
345
345
345
346
347
347
346
345
345
344
344
344
344
343
343
343
343
344
346
347
346
346
344
342
342
341
342
343
344
345
346
346
346
346
347
345
344
343
343
344
343
344
345
345
345
344
344
345
344
345
348
348
348
348
347
348
346
345
347
347
348
349
348
346
345
344
344
345
345
345
345
344
346
347
347
347
347
348
348
349
348
348
348
350
352
355
357
360
360
362
364
367
367
368
368
368
367
365
364
364
366
367
367
367
365
362
360
358
356
356
355
353
352
348
347
346
345
345
346
347
348
347
346
344
342
342
344
344
345
344
344
344
343
343
343
343
343
345
345
345
345
346
344
344
344
345
346
348
353
363
379
400
422
447
470
491
503
502
492
484
463
428
373
302
226
162
123
111
123
150
187
225
259
294
320
342
357
365
368
367
365
363
360
357
357
356
355
354
354
355
356
359
361
363
364
363
363
364
364
363
365
365
366
367
367
368
366
367
367
370
373
375
376
377
377
378
378
378
378
378
376
375
376
377
379
380
382
384
385
386
385
384
386
386
387
389
390
391
391
392
394
395
397
399
400
401
402
401
401
401
404
406
408
410
410
411
414
414
416
419
421
422
425
427
428
430
430
432
433
434
434
434
433
433
430
428
427
426
425
423
421
418
416
414
413
413
409
407
402
398
395
391
387
385
382
378
374
369
365
361
358
357
356
354
350
347
345
342
341
340
340
339
338
337
336
334
335
336
337
338
338
336
337
335
337
338
340
339
339
337
338
336
336
336
338
340
341
341
340
340
338
338
339
341
343
343
342
341
340
340
341
342
343
343
344
345
346
346
346
347
346
346
345
344
343
340
340
339
340
341
341
342
342
342
343
343
344
343
343
342
341
340
341
343
344
345
346
345
345
342
341
341
340
340
341
342
342
341
341
342
343
342
342
342
342
342
341
341
340
341
341
339
337
335
334
334
335
338
339
341
341
340
339
338
338
338
338
339
340
340
340
340
340
341
342
343
343
344
345
345
345
343
342
341
341
340
341
340
341
341
341
342
343
345
345
345
346
345
345
346
345
345
346
346
346
345
345
346
347
349
349
350
349
348
347
347
347
348
349
350
350
349
347
346
346
347
349
349
349
348
348
348
349
350
351
352
353
352
351
352
353
355
358
362
365
368
370
372
374
375
374
374
373
370
368
366
365
365
365
366
365
362
361
360
358
359
359
359
358
356
353
351
349
347
347
347
348
348
347
346
346
346
347
347
347
347
347
347
347
347
346
345
346
348
348
349
347
346
345
346
347
347
348
349
349
351
359
370
386
405
427
449
471
490
500
502
495
479
450
399
331
251
182
138
122
129
140
168
201
233
261
284
304
321
336
348
355
359
361
362
361
361
361
362
360
359
358
358
359
360
361
363
364
365
367
369
370
371
372
372
372
372
372
373
374
375
376
377
378
379
379
379
380
379
380
381
380
382
380
379
378
377
377
377
379
378
380
380
381
384
384
388
389
391
393
394
394
394
394
395
396
397
399
400
400
400
401
401
402
406
407
408
409
410
413
415
418
421
424
428
431
433
434
435
437
437
438
438
438
437
436
434
433
431
430
428
426
424
423
419
416
413
410
407
403
399
395
392
389
386
384
380
376
373
371
367
364
361
358
355
351
348
345
342
340
339
339
340
340
339
338
337
336
336
336
337
338
338
338
337
335
335
335
335
336
338
339
340
339
338
339
338
339
338
339
337
338
336
336
337
340
342
343
343
345
343
343
343
344
345
347
347
347
346
346
345
345
344
345
344
344
343
342
340
339
339
340
340
340
339
339
339
341
344
344
344
344
343
342
342
343
343
342
343
341
340
336
336
337
338
340
341
342
342
343
345
346
346
346
345
345
344
343
342
342
342
343
343
344
344
345
343
341
340
340
339
339
340
341
342
341
340
340
340
340
340
340
340
339
338
341
340
342
343
343
344
342
340
339
339
338
339
339
340
338
338
339
339
339
339
340
342
340
341
340
340
341
342
343
344
341
342
341
340
341
341
343
345
346
347
346
346
346
346
346
346
346
344
342
342
344
345
347
348
348
348
346
345
343
344
343
345
346
347
347
348
348
348
351
354
358
362
365
366
367
368
366
366
365
363
362
360
360
361
361
363
365
365
362
361
359
357
357
356
355
354
351
348
347
345
344
342
344
344
345
346
344
342
341
341
342
343
345
344
342
342
341
342
343
344
345
345
346
347
347
347
348
348
348
347
348
350
355
367
384
405
427
450
471
485
489
485
471
451
423
382
328
265
202
157
136
140
159
191
225
261
293
319
340
354
363
366
368
366
363
360
358
356
356
357
357
358
358
358
359
359
362
364
367
365
364
363
364
366
367
369
371
373
370
371
371
371
371
374
376
379
381
381
380
379
379
378
378
377
376
376
377
378
379
382
384
385
385
385
384
384
384
385
387
388
387
388
389
389
389
393
393
396
399
401
402
402
403
402
402
404
404
405
406
407
409
411
413
414
418
419
421
422
423
424
426
427
429
430
430
430
428
427
425
424
423
422
420
418
416
413
411
409
408
407
404
401
396
392
386
382
378
375
373
370
368
364
359
355
352
350
346
345
343
342
341
340
339
338
338
337
338
338
337
336
334
334
334
334
335
336
336
335
335
335
337
337
337
338
338
337
336
336
336
336
337
338
338
338
337
337
338
339
339
339
338
337
337
337
337
339
342
343
343
341
340
341
343
343
344
344
344
342
340
339
339
341
343
343
344
344
345
343
343
342
342
343
343
342
342
340
340
340
342
342
342
343
344
344
343
342
342
342
343
344
345
345
345
345
344
344
344
344
344
344
344
343
344
344
343
342
341
341
339
339
338
340
340
341
341
341
340
340
340
341
342
343
343
342
341
340
341
343
343
345
345
347
347
347
346
346
345
344
344
343
344
343
345
344
344
343
343
342
341
340
340
340
342
342
343
344
344
343
342
341
341
342
342
343
344
344
344
343
344
344
346
347
347
348
348
347
347
347
347
347
346
346
344
344
345
346
346
348
346
346
345
344
343
343
343
343
343
343
347
348
350
353
357
360
363
365
368
367
366
365
363
362
363
364
365
365
365
364
364
362
363
362
361
358
356
354
352
352
352
352
351
350
348
345
344
345
345
346
347
348
348
346
345
344
344
345
347
348
347
345
345
343
342
341
342
342
343
344
344
344
343
343
343
344
347
349
355
368
387
409
431
454
475
488
490
480
463
439
424
384
328
261
197
148
125
124
143
174
212
250
286
317
342
359
368
371
370
367
362
360
356
356
355
357
359
360
361
361
361
360
360
360
361
365
366
368
369
371
370
370
370
370
371
370
369
368
369
370
373
376
379
377
377
376
376
377
378
379
381
380
380
380
380
380
382
383
384
384
384
383
385
386
387
389
391
393
394
394
394
394
395
396
398
398
399
400
401
406
407
409
411
413
415
415
416
417
419
422
425
429
431
432
431
431
430
429
427
429
429
429
428
428
428
428
427
426
425
424
420
417
414
412
411
410
408
406
404
399
394
387
383
380
376
374
371
368
366
363
360
359
357
355
352
349
345
343
341
341
342
343
344
345
345
345
342
340
340
340
341
342
341
340
339
339
340
342
342
344
344
344
344
343
343
344
345
346
347
348
347
346
344
344
344
343
343
342
341
340
340
341
342
345
347
349
350
348
348
348
348
349
349
348
349
349
350
351
351
351
351
352
353
353
354
355
358
360
362
362
363
362
357
354
351
348
347
347
346
346
346
345
345
346
345
346
346
346
345
344
342
342
343
345
346
347
346
347
347
346
347
346
345
345
344
344
344
344
345
347
346
346
346
344
344
345
345
346
345
345
346
345
345
345
346
348
350
351
352
352
350
347
345
344
343
342
341
340
337
337
336
336
338
340
341
342
342
344
344
345
345
344
344
342
341
340
339
340
341
344
346
348
348
346
344
342
343
342
343
343
343
342
342
342
344
344
347
347
349
348
347
347
347
347
346
344
343
342
342
343
344
344
345
346
346
347
346
345
344
343
343
344
344
347
347
348
349
353
356
361
366
370
371
373
372
371
370
369
368
367
367
365
364
363
362
360
358
356
354
353
352
351
352
352
352
353
351
349
347
344
342
341
342
342
344
342
342
341
341
342
341
342
341
340
340
340
341
343
343
344
344
344
343
341
341
341
341
342
343
346
348
356
370
389
412
436
449
475
495
505
502
489
468
439
393
329
254
183
131
108
110
131
166
206
246
281
313
336
345
357
362
364
363
361
361
360
361
360
359
360
360
358
358
358
359
359
359
362
364
365
367
368
369
371
370
369
369
368
368
367
368
369
371
373
376
379
379
378
377
378
377
377
378
380
381
382
383
384
386
386
387
388
388
386
385
383
382
382
383
386
389
392
394
396
395
393
394
395
397
400
403
405
407
408
410
410
413
413
414
415
416
417
420
419
420
423
425
429
432
435
435
435
435
433
431
430
430
429
430
429
427
425
422
419
417
416
414
413
411
408
404
399
395
390
385
381
376
373
370
368
364
362
360
358
357
354
354
350
348
345
342
339
339
339
339
338
338
338
337
335
333
332
332
332
333
335
338
338
338
337
336
336
335
335
335
337
336
335
335
335
337
337
337
337
337
337
338
340
338
339
339
338
338
338
338
339
340
341
342
343
343
341
342
343
343
342
341
339
338
337
337
338
339
343
345
347
349
348
347
346
345
345
345
345
344
344
343
343
343
341
341
341
341
342
341
341
340
340
340
341
341
342
342
342
343
343
344
344
344
343
343
342
342
343
342
344
344
343
341
340
339
339
339
340
340
340
340
340
340
342
343
343
343
343
342
341
340
340
340
342
343
343
344
342
342
341
341
340
341
341
342
342
342
343
344
345
345
347
347
347
344
341
339
338
337
338
338
340
338
337
337
339
339
340
341
342
342
343
343
343
343
344
346
347
348
347
347
345
345
344
344
345
347
348
347
347
345
344
345
345
345
345
344
343
344
345
347
349
351
350
350
350
350
351
354
356
359
361
363
363
365
368
370
373
373
374
372
369
366
364
363
364
367
368
369
369
368
367
363
361
360
359
358
357
354
353
351
349
349
350
350
349
347
346
344
343
344
344
345
345
345
344
345
344
344
345
346
346
347
346
346
347
349
350
351
351
348
346
345
346
352
364
381
390
411
434
460
483
500
510
510
502
483
451
398
326
245
178
139
127
135
160
194
227
243
269
290
308
323
336
346
354
359
361
363
364
362
360
358
356
354
355
356
356
357
357
357
357
360
361
364
366
370
370
368
368
367
365
365
367
369
369
370
369
370
371
372
373
375
376
377
378
378
377
377
377
378
379
380
380
381
381
381
382
384
385
386
387
387
389
390
392
395
395
395
395
397
398
398
399
399
401
404
407
410
412
413
413
415
417
418
420
421
423
424
424
425
427
429
430
431
431
431
431
431
431
432
431
431
430
427
425
421
418
415
412
410
408
405
402
399
396
393
393
388
384
379
373
368
365
362
360
358
356
354
352
348
347
345
343
341
339
338
337
336
334
333
332
332
334
335
334
334
332
331
330
331
332
335
337
339
337
336
336
336
336
337
336
336
335
334
334
336
337
338
339
339
340
339
338
339
339
340
339
338
337
337
337
338
339
339
341
344
346
347
347
346
345
344
343
343
343
341
340
340
340
342
343
346
347
347
347
346
346
345
344
344
344
345
343
343
344
344
345
346
345
345
342
341
340
343
345
346
347
347
345
344
341
340
340
340
340
340
340
340
340
341
341
341
341
340
339
339
341
340
343
343
345
345
345
345
343
341
339
337
337
338
341
342
343
345
346
347
348
347
345
343
340
338
338
338
340
341
343
344
344
344
344
344
344
345
346
346
346
345
345
347
347
348
347
346
345
345
344
343
344
344
345
345
344
343
342
341
342
343
345
346
345
345
344
345
346
345
346
347
347
348
348
349
351
354
358
362
368
370
371
370
369
368
367
367
366
365
363
362
363
362
362
362
361
359
357
356
355
354
354
353
352
353
351
348
347
346
344
344
347
348
348
349
349
347
346
343
342
342
342
342
342
344
345
347
348
349
349
349
348
348
348
348
348
350
352
354
359
366
377
393
412
434
459
480
494
497
488
467
441
405
353
288
220
190
147
132
137
158
190
225
258
287
310
329
345
356
363
368
368
367
365
363
362
362
363
363
363
364
363
363
362
362
362
363
364
363
364
366
368
370
370
371
370
369
369
369
370
371
373
375
377
378
378
377
377
377
377
378
380
380
379
378
377
377
378
379
379
381
381
382
384
384
385
385
387
388
390
391
393
393
396
396
397
400
400
401
400
402
401
402
404
406
410
412
416
417
417
418
419
421
422
423
424
424
425
425
426
427
427
428
428
427
427
426
426
425
424
423
421
419
416
413
409
405
404
401
399
395
391
386
383
382
376
373
371
368
365
362
358
355
352
352
349
347
345
342
340
339
338
340
340
339
339
338
339
338
337
336
335
335
335
334
334
334
333
333
334
335
336
336
335
335
335
335
336
337
339
339
339
337
336
335
335
335
334
334
335
335
336
337
339
340
342
341
342
342
342
343
344
345
345
346
346
348
345
344
342
342
343
345
345
345
344
343
343
344
343
346
346
346
344
342
341
340
341
342
343
345
344
343
341
340
339
339
340
341
341
341
339
341
340
343
345
347
349
348
346
344
343
343
344
343
342
341
340
340
341
343
344
345
347
348
346
345
344
342
341
341
342
345
344
344
344
343
342
342
343
345
347
348
347
347
346
347
346
346
345
344
343
343
343
343
344
344
343
343
344
345
345
346
347
348
349
348
347
345
343
342
342
343
344
345
345
346
346
347
347
347
347
346
345
344
346
346
348
351
351
353
350
349
347
346
344
345
347
350
353
354
355
356
358
362
368
371
371
372
371
370
370
367
367
368
369
370
369
368
364
361
358
357
357
357
358
360
359
358
356
353
351
348
347
347
346
345
344
344
345
346
346
346
345
346
346
348
350
351
350
349
347
346
346
346
348
351
