347
346
344
343
341
344
346
348
351
354
357
358
357
355
354
352
350
348
349
350
352
354
356
358
359
358
358
357
356
353
351
350
350
350
350
350
349
350
351
351
352
354
355
355
354
352
350
348
346
345
346
348
350
354
354
355
355
355
353
352
351
350
349
349
349
350
352
351
351
350
349
347
347
350
353
356
356
356
354
353
354
354
356
356
356
355
354
353
353
353
354
355
355
355
353
350
347
345
348
352
355
358
360
360
358
357
356
355
356
355
355
354
354
354
354
356
355
355
355
355
355
356
358
360
365
366
368
369
369
370
371
373
376
376
376
373
370
367
368
368
369
369
369
368
366
362
359
358
356
356
356
354
353
352
350
349
348
348
349
350
351
353
354
353
354
354
354
352
352
350
348
347
348
351
354
354
353
352
349
346
345
345
349
358
372
390
411
435
459
471
490
502
502
493
477
452
412
357
290
227
185
167
169
186
210
239
266
288
305
318
327
332
338
344
349
352
356
358
357
355
354
353
353
354
356
358
358
358
358
357
356
356
356
357
356
357
357
357
357
359
361
363
364
365
366
365
366
366
367
368
369
369
368
369
368
367
367
367
366
368
369
369
370
373
374
375
375
375
376
376
376
375
375
375
378
379
382
385
386
387
388
389
393
395
396
397
398
400
401
404
407
411
413
413
415
416
417
419
421
424
424
426
426
426
426
426
427
430
430
429
427
425
423
422
422
423
423
423
421
419
415
411
408
405
403
400
397
393
388
384
380
378
378
377
373
369
364
358
354
353
350
350
348
349
345
343
341
340
340
340
338
335
334
331
330
331
332
334
335
336
337
336
335
334
333
334
334
333
333
331
330
329
329
330
333
335
337
337
336
334
334
334
334
334
335
337
338
337
337
338
338
337
338
337
337
337
338
339
342
345
348
349
350
351
349
348
347
348
347
348
349
348
347
345
344
344
345
347
348
348
347
345
344
344
344
345
345
345
344
343
342
341
342
342
345
344
344
343
343
343
343
343
343
342
342
340
338
339
340
342
342
342
341
340
339
338
339
341
341
342
342
340
339
338
339
339
340
341
342
340
340
339
338
339
340
341
343
343
343
343
343
343
343
343
345
345
345
344
343
342
343
344
344
344
344
343
342
342
342
342
342
343
343
342
341
341
341
342
344
344
343
344
342
342
342
343
344
346
346
346
345
345
346
347
348
349
349
348
345
344
344
345
347
349
352
353
354
355
357
358
361
362
364
364
365
365
365
364
363
363
362
361
360
357
355
354
353
353
353
351
350
347
345
343
343
345
344
345
345
344
342
340
339
339
339
340
340
341
341
341
341
342
344
345
346
346
346
344
344
343
343
342
342
344
351
355
370
391
414
439
462
481
490
487
474
456
432
398
346
283
223
179
157
155
170
195
209
239
265
288
306
323
338
349
355
363
365
367
368
368
368
368
368
365
364
362
360
361
360
359
358
358
358
358
359
357
356
356
356
356
357
358
359
359
359
359
360
362
362
363
363
363
361
361
360
361
362
362
363
362
362
363
362
363
363
364
365
365
366
367
366
368
370
372
374
377
378
379
380
382
386
388
391
393
395
396
396
398
402
404
407
408
410
411
411
409
403
397
391
387
386
389
397
407
418
430
437
443
446
445
442
437
432
430
427
424
422
419
418
415
412
408
406
403
400
395
394
388
382
377
373
370
368
366
364
361
357
354
351
349
345
341
337
333
329
326
326
324
325
325
324
323
322
321
321
321
323
325
328
331
332
333
335
336
336
337
338
339
339
339
339
340
340
341
343
343
342
340
339
336
335
335
336
338
341
342
343
344
346
347
347
347
345
343
341
341
341
340
341
342
342
342
341
339
336
334
333
333
335
338
339
342
345
349
350
350
349
346
343
342
340
339
340
343
345
346
347
348
347
346
345
344
343
342
341
339
337
333
328
324
321
320
320
322
326
332
337
341
344
342
337
333
329
328
330
333
338
344
349
352
353
351
350
345
340
336
332
330
329
327
329
332
338
343
348
350
350
347
343
341
339
339
340
340
339
337
335
331
328
327
327
329
334
336
339
341
341
338
335
332
331
331
333
338
345
348
353
356
358
355
350
342
335
330
328
331
335
340
344
346
348
350
351
350
347
343
342
338
336
337
340
346
353
359
364
366
370
371
371
369
368
366
363
362
362
361
360
359
357
355
350
343
336
332
331
333
337
344
348
349
352
355
356
355
351
347
339
333
330
329
331
334
341
351
358
363
364
362
358
354
349
347
346
347
349
349
347
346
346
346
347
346
345
346
353
365
384
407
434
460
481
489
485
471
449
415
366
308
252
208
182
177
179
192
215
242
270
300
328
352
369
372
359
338
314
295
284
286
298
317
342
367
390
400
410
411
406
398
389
380
375
372
369
368
368
368
369
371
371
372
372
371
369
366
365
361
359
358
359
363
367
372
375
377
378
378
379
372
366
356
346
338
337
341
350
356
369
383
394
401
404
403
400
396
392
388
386
386
388
393
395
397
399
401
402
401
395
390
377
364
355
357
368
386
409
432
451
465
472
468
458
445
433
423
417
415
420
430
435
445
451
454
453
451
448
443
438
433
427
422
418
415
411
408
400
391
382
375
372
371
374
378
382
386
387
387
385
381
376
367
357
347
337
332
331
334
342
352
359
364
366
367
368
366
362
355
348
342
339
336
336
337
342
350
358
362
362
361
358
355
356
356
355
354
354
354
356
355
351
349
349
350
351
352
353
353
350
347
342
340
338
338
341
344
350
358
364
369
370
368
364
359
355
348
343
336
329
321
315
312
315
323
336
352
365
372
379
382
380
377
372
368
365
363
361
361
360
360
361
362
362
363
361
359
358
355
354
353
352
353
355
356
357
359
361
360
361
359
356
352
348
345
342
342
343
347
351
351
353
352
351
350
348
349
349
349
349
349
349
349
347
347
346
346
346
346
346
346
346
347
347
346
343
340
337
335
334
335
337
341
342
343
342
341
338
337
336
337
337
338
339
340
341
343
346
350
352
353
352
349
348
344
344
344
344
344
345
346
348
350
354
354
357
358
358
357
356
357
357
359
361
363
365
366
368
371
371
372
372
373
372
370
370
369
368
367
366
365
365
364
362
361
360
359
357
355
354
352
350
348
347
348
349
351
352
353
353
352
350
350
349
349
349
349
350
350
350
350
348
349
350
352
351
350
348
347
345
343
343
345
350
360
376
397
421
446
472
494
506
510
502
487
464
426
369
303
240
216
184
174
183
201
227
255
280
298
316
330
341
349
354
357
359
358
356
354
352
350
349
349
350
350
351
352
351
352
352
352
353
353
353
353
353
353
352
353
355
357
357
358
358
358
358
359
359
360
361
361
361
361
362
361
361
363
364
365
365
365
365
364
364
365
367
368
368
369
369
370
370
372
374
375
378
379
380
381
384
385
388
392
392
394
395
396
396
398
400
403
406
408
410
411
413
414
416
418
420
422
423
423
423
423
424
424
427
426
427
426
424
424
421
419
419
418
416
414
412
410
407
406
404
404
399
396
390
388
384
381
378
376
372
369
364
361
356
355
354
352
350
348
346
344
342
341
341
342
343
341
340
338
336
335
334
335
335
335
336
335
335
333
334
334
335
335
335
334
334
334
334
334
334
335
335
336
335
334
334
334
335
336
336
337
337
337
336
336
338
339
341
340
340
340
340
340
341
343
343
343
343
343
343
343
343
344
344
344
344
343
344
343
343
344
345
344
346
345
345
343
342
343
343
344
344
343
342
342
340
340
340
341
341
341
341
340
338
337
337
337
339
339
339
339
337
337
338
339
340
340
340
339
337
336
337
338
341
341
341
341
339
337
338
338
340
341
343
342
342
340
340
341
342
343
344
344
344
343
342
342
343
345
345
345
345
344
344
344
345
346
346
347
347
347
346
346
346
347
348
348
348
347
346
344
344
345
347
348
348
348
349
349
349
349
350
351
352
352
351
352
353
352
355
356
358
359
361
362
363
363
363
364
364
364
363
363
360
359
358
358
358
357
357
353
351
350
348
348
346
347
346
345
344
344
345
346
346
347
345
344
344
343
343
343
345
346
347
346
345
345
345
346
348
348
347
345
342
340
339
341
347
359
376
385
407
430
453
476
489
498
497
488
473
444
398
336
271
219
190
183
192
212
234
260
272
291
306
318
328
337
345
351
357
360
363
363
363
361
360
357
357
357
358
359
360
361
360
360
360
360
361
362
362
363
362
363
362
362
364
366
368
368
368
368
365
366
366
367
368
369
369
369
369
370
371
373
373
373
374
373
372
372
373
373
374
376
377
378
379
379
380
382
385
388
390
390
390
391
392
394
398
399
405
406
407
408
408
409
409
412
412
413
414
416
417
419
421
424
425
425
425
425
425
425
425
425
426
426
426
426
423
423
422
420
417
415
413
411
409
406
404
401
400
395
392
388
385
381
377
374
371
368
366
363
360
359
355
353
351
350
349
349
348
347
346
344
343
341
340
338
338
337
336
336
335
335
335
334
334
333
333
333
333
334
334
333
333
331
331
331
332
334
336
339
339
340
339
338
338
339
340
340
341
341
340
339
339
338
339
340
343
343
343
343
341
341
341
342
342
342
341
342
342
345
348
350
352
352
352
350
347
345
343
341
341
341
342
342
341
340
338
337
336
337
337
337
335
334
334
334
336
336
337
338
338
335
335
334
333
334
335
337
337
337
335
333
331
331
331
331
331
330
331
331
331
333
333
334
336
336
337
337
338
339
340
342
344
346
347
345
346
348
349
349
350
349
346
343
341
341
345
346
352
357
361
364
366
368
369
367
365
361
358
355
353
352
351
350
349
348
347
347
345
346
347
349
350
352
353
353
352
352
352
350
351
353
353
353
352
350
350
351
352
355
356
358
357
356
356
358
360
363
366
368
371
373
377
382
385
386
385
380
372
363
354
351
347
346
348
350
352
356
358
361
363
365
365
363
361
358
356
352
351
351
351
352
352
352
352
351
350
349
350
352
354
356
356
354
351
346
342
336
330
325
323
326
337
358
370
396
426
455
479
493
495
488
474
454
420
370
309
251
208
186
182
193
213
239
263
274
294
311
326
337
345
349
350
348
346
343
341
338
334
332
332
334
336
339
343
348
354
356
363
369
377
384
394
402
406
408
406
403
399
392
387
382
378
374
375
376
379
380
380
381
382
384
385
386
386
386
385
385
386
388
390
392
393
395
397
399
401
404
406
406
408
408
410
407
405
401
399
399
399
400
402
403
404
405
405
406
408
410
412
415
418
419
422
425
427
429
427
428
427
428
428
428
429
430
430
432
429
429
428
428
428
428
429
430
430
431
431
429
426
422
416
408
400
393
387
384
382
381
378
378
374
370
366
365
362
361
359
357
356
352
350
346
340
333
326
323
323
327
333
343
353
360
366
367
363
361
355
349
345
342
340
341
341
340
337
335
334
333
333
333
334
335
334
334
332
332
332
331
332
331
330
328
328
328
329
331
334
336
338
338
336
336
336
337
337
337
336
336
334
333
332
332
333
334
336
338
338
338
337
337
337
338
339
339
338
338
338
340
339
339
339
338
338
337
336
336
335
335
336
336
335
333
331
331
331
332
333
333
334
334
334
334
335
334
335
335
335
335
333
334
334
335
336
337
337
337
337
337
336
336
337
336
336
337
337
337
337
338
338
339
339
340
338
338
339
339
339
340
342
343
342
341
341
341
342
342
342
343
343
343
342
342
342
343
344
345
346
345
345
344
344
344
345
346
346
346
345
346
346
348
348
349
349
350
348
346
345
345
346
347
348
348
347
347
346
347
347
347
349
349
350
349
349
348
348
348
348
349
352
352
353
354
356
359
361
363
364
365
365
365
366
366
369
371
370
369
367
365
363
362
361
361
361
361
360
358
356
354
353
351
351
351
350
349
348
347
349
349
349
350
349
348
348
348
348
348
349
350
350
350
350
350
351
351
353
354
354
354
354
354
356
364
379
399
422
444
470
487
498
500
492
485
466
438
393
334
271
218
181
169
177
196
222
250
275
300
323
342
356
364
365
362
361
357
354
352
352
352
352
352
353
352
352
353
354
355
357
356
356
357
357
357
358
358
358
360
360
360
361
361
363
364
365
365
364
364
364
365
367
369
370
372
370
370
370
370
371
371
372
372
372
371
370
370
369
369
371
373
374
375
376
376
377
378
379
380
380
381
380
380
380
381
384
387
391
394
397
399
400
402
404
406
409
411
411
413
414
416
417
419
420
421
421
421
420
421
420
420
420
420
420
418
416
415
413
412
411
408
405
404
399
395
391
388
385
383
379
375
371
367
364
360
357
355
355
352
349
346
343
341
340
340
340
339
336
335
333
333
332
332
333
334
334
333
332
332
333
333
333
333
331
331
330
329
329
330
331
332
332
333
333
333
333
332
333
333
333
332
332
331
332
333
334
335
336
336
338
337
337
336
337
338
339
340
341
341
341
339
341
341
342
342
342
342
342
343
343
345
344
345
343
343
341
343
342
344
345
346
345
344
344
344
343
343
344
344
345
344
344
343
344
344
344
345
345
346
345
344
344
344
345
345
346
346
345
344
344
345
345
346
346
346
344
343
343
343
344
345
346
347
347
346
345
344
345
346
347
348
348
348
347
347
346
346
345
347
349
349
348
348
347
347
348
348
348
347
346
345
346
346
347
348
349
348
348
348
348
348
349
351
352
352
352
352
351
352
353
354
355
355
353
353
353
352
352
353
354
355
354
354
352
350
350
350
352
354
356
356
357
359
360
363
365
367
369
368
368
367
367
369
372
373
374
373
372
368
366
364
364
365
365
362
360
358
355
351
349
350
352
355
355
354
352
352
350
352
355
357
360
363
362
362
362
363
363
363
364
364
364
363
361
359
358
357
355
355
359
371
390
412
436
462
488
503
508
502
497
479
454
414
356
290
229
186
166
168
186
213
244
273
299
322
343
358
367
372
373
372
370
366
362
358
356
353
352
352
351
351
350
350
347
347
347
348
348
347
346
346
347
347
349
350
352
352
353
353
354
355
357
359
361
361
362
362
363
363
363
364
365
366
366
366
365
364
364
366
368
370
370
370
371
372
374
377
379
382
383
386
389
392
393
394
397
399
400
401
402
403
405
406
409
411
413
414
415
415
416
415
416
418
419
420
420
419
418
417
415
414
412
410
409
409
409
410
411
412
413
413
413
411
409
406
402
400
398
396
393
391
388
386
382
379
376
373
369
365
361
357
354
351
350
349
348
346
343
341
337
335
333
332
332
331
331
330
330
330
330
330
331
330
330
329
329
327
328
330
331
331
330
330
328
328
329
330
331
334
334
335
335
335
334
336
336
337
337
339
338
338
338
338
340
341
342
342
342
341
341
341
343
344
345
346
345
345
345
344
344
346
347
347
347
347
346
344
343
344
344
345
345
346
346
345
345
346
347
348
347
346
345
344
344
345
345
346
346
347
347
346
346
346
346
346
347
347
346
345
345
344
345
346
347
348
348
347
346
345
345
346
348
347
348
349
348
348
349
350
351
350
350
350
349
347
347
348
349
350
351
350
349
347
345
344
345
346
346
346
346
346
346
346
347
348
348
349
349
350
349
349
349
349
350
351
351
351
350
350
351
354
358
359
361
360
360
360
361
363
364
366
367
367
366
366
366
365
363
361
359
357
355
354
353
352
352
351
350
348
347
347
344
346
347
349
350
349
349
347
345
344
344
344
347
347
348
347
345
344
344
344
346
346
346
346
345
343
342
341
342
343
348
358
373
393
417
443
470
492
505
506
497
481
470
436
383
314
244
189
159
153
165
189
219
250
274
296
315
330
342
351
355
358
360
360
359
354
353
350
349
349
351
351
351
351
350
350
351
352
355
356
357
357
356
355
354
354
355
356
358
359
360
360
360
360
362
363
364
364
364
364
364
365
366
368
368
368
368
368
367
368
369
371
373
374
374
374
376
374
375
377
380
381
382
384
385
386
386
387
389
391
394
395
397
397
399
402
405
408
410
411
413
413
415
416
418
420
422
424
424
425
424
424
423
424
425
426
424
424
421
419
417
418
418
419
419
416
413
410
407
404
403
401
400
396
392
385
380
376
372
369
366
364
361
359
358
356
354
351
349
346
344
344
343
342
340
339
338
338
337
338
336
336
336
337
339
339
339
337
335
334
335
336
338
337
338
338
337
336
336
336
338
340
342
343
343
342
341
340
341
342
341
341
341
342
341
342
344
345
347
348
347
346
345
348
349
352
352
352
352
350
348
348
349
353
353
353
352
350
348
349
349
350
351
351
350
350
349
348
347
347
347
347
348
349
349
348
348
348
349
350
350
349
347
347
348
347
347
348
348
347
346
346
346
346
348
347
348
349
349
348
347
346
346
346
347
347
345
344
344
345
347
351
352
352
351
349
348
347
347
347
348
347
348
346
345
345
346
347
348
348
349
347
347
346
345
346
347
348
348
347
347
346
346
347
348
349
351
351
351
351
351
353
356
359
362
364
365
365
363
362
360
360
358
356
354
351
349
349
350
350
351
353
355
355
353
352
349
347
347
347
348
348
346
344
341
339
340
339
343
347
350
353
355
357
360
361
363
363
364
364
364
366
367
367
366
366
364
362
360
359
358
357
354
351
346
342
338
335
334
336
337
340
343
343
343
342
342
340
342
341
341
341
339
339
340
340
341
342
342
342
342
341
341
339
339
340
342
344
349
360
377
399
422
448
470
487
493
488
475
455
426
381
321
253
196
159
147
154
175
189
222
252
281
307
329
346
356
360
362
361
359
356
354
352
352
351
352
352
352
352
352
351
350
351
352
353
355
356
358
357
358
360
359
359
361
363
364
364
364
364
364
364
366
366
367
367
367
367
368
368
370
371
371
370
369
369
372
374
376
379
382
383
382
382
381
381
383
384
386
388
389
391
392
393
395
396
397
398
400
400
402
404
407
410
411
412
413
414
415
417
418
423
424
426
427
429
429
430
431
431
430
431
431
431
430
429
428
427
426
425
425
423
420
417
415
414
412
411
409
405
401
395
391
387
386
383
381
380
376
372
368
364
362
360
358
357
355
352
350
349
349
348
347
347
346
345
344
342
341
341
340
341
341
342
342
340
340
341
340
341
342
343
342
341
341
341
343
344
346
346
346
345
345
345
347
347
348
348
349
346
345
346
347
349
351
351
351
349
347
347
348
349
350
352
353
353
353
352
351
352
352
352
351
351
350
350
350
350
351
353
354
352
352
350
348
348
348
347
349
349
350
349
349
348
347
347
348
349
350
348
347
348
349
347
349
350
350
349
348
347
347
347
347
347
346
345
344
343
344
344
346
346
347
346
344
344
343
343
341
343
345
345
345
345
346
345
345
345
345
346
343
342
342
342
343
345
346
348
349
350
350
349
350
350
352
353
354
353
352
353
353
354
353
353
354
353
353
353
353
353
354
353
353
353
351
349
347
347
346
346
347
346
345
344
344
343
342
342
342
342
342
340
340
339
341
342
343
344
344
344
344
345
346
346
346
346
345
344
343
343
343
343
344
345
346
347
347
346
347
348
349
348
347
346
346
346
349
350
352
354
355
356
356
356
357
359
360
361
364
365
365
365
364
363
362
361
360
360
357
355
353
353
350
350
348
347
345
345
345
344
345
344
346
346
346
345
346
345
345
345
345
346
346
345
346
345
345
346
345
346
347
346
345
344
342
343
343
347
356
370
390
412
437
461
482
491
500
499
488
471
444
401
341
272
212
171
155
159
179
206
238
267
293
317
338
352
361
363
365
365
364
362
360
359
357
355
354
354
354
356
356
357
357
357
357
358
359
361
362
365
364
365
364
364
365
366
367
369
370
370
370
370
370
371
372
374
374
374
373
373
372
372
374
375
376
377
377
377
378
377
380
381
382
382
382
382
383
385
388
391
393
395
395
395
395
396
398
400
402
404
406
406
407
409
409
412
415
418
420
420
422
423
424
426
428
430
430
430
430
430
431
431
432
433
433
433
431
429
428
427
425
425
424
423
421
418
416
412
409
406
404
400
396
392
388
385
381
377
375
372
367
363
357
354
352
351
351
351
349
348
347
345
344
343
343
342
342
340
339
339
340
341
341
341
341
341
340
338
339
339
340
342
343
342
343
342
342
341
341
343
344
345
345
344
344
344
345
346
347
349
348
348
347
347
348
349
349
350
349
349
348
348
347
348
349
350
349
347
347
347
347
348
350
352
353
351
350
349
347
346
346
347
348
349
349
348
348
346
347
347
348
349
347
346
346
345
346
347
348
348
347
346
345
347
347
348
350
350
349
348
347
347
347
347
348
349
348
348
347
346
347
347
347
347
347
348
347
346
347
346
346
348
347
346
347
347
347
348
348
350
351
350
350
350
349
348
349
351
352
353
353
352
350
350
350
350
350
352
351
351
351
352
352
353
353
354
353
353
351
351
351
351
353
354
354
354
354
353
353
354
355
357
358
358
359
359
359
361
361
362
363
363
364
365
367
367
370
371
373
373
373
372
371
369
367
366
366
366
366
362
359
357
354
352
352
352
353
354
354
353
354
353
353
354
354
354
353
352
351
351
352
353
354
353
352
351
350
350
351
352
353
352
350
349
349
351
356
367
382
399
418
440
462
483
497
504
502
494
476
443
392
361
293
231
192
179
184
201
225
249
270
287
300
312
321
331
340
348
354
359
363
365
366
363
360
357
356
355
356
357
360
360
359
359
359
359
359
360
360
362
362
362
362
362
363
364
366
366
365
364
363
363
365
367
369
371
370
370
370
370
369
370
373
376
377
378
377
375
376
375
376
377
379
379
378
378
378
380
381
382
384
384
384
384
386
387
388
391
394
397
399
400
401
403
405
407
411
412
413
414
414
415
416
417
419
421
422
422
424
423
422
422
422
422
421
420
419
417
415
413
411
409
407
406
404
403
401
398
396
393
390
387
382
379
375
370
367
365
363
360
358
356
353
351
349
348
347
344
343
340
339
337
336
336
336
336
336
336
335
334
335
335
336
338
339
339
338
337
336
335
335
335
335
336
337
337
337
337
338
339
342
342
342
341
340
341
343
343
345
345
344
343
342
341
341
342
343
344
344
344
342
341
342
342
344
346
346
347
345
344
343
344
343
345
345
345
345
343
342
342
343
344
346
345
344
344
344
345
345
345
346
345
344
344
344
343
343
343
344
345
345
345
345
344
345
346
348
346
346
345
344
344
344
344
345
346
345
345
344
343
342
341
342
344
345
346
345
344
343
342
342
343
343
343
342
341
341
341
342
343
344
344
345
347
348
350
350
352
353
354
353
352
351
350
351
354
358
359
361
361
360
361
362
364
366
366
367
363
361
359
356
354
354
356
354
353
352
349
347
346
346
347
348
348
347
346
345
343
343
343
344
344
344
345
345
345
344
345
345
345
344
343
343
343
343
343
342
344
343
345
348
354
365
380
398
417
439
460
476
485
485
479
465
455
425
380
324
266
219
195
192
202
221
243
264
282
296
307
316
323
329
337
345
350
354
356
357
358
358
357
356
355
354
352
352
353
355
357
359
358
358
359
360
359
362
361
362
363
363
363
363
364
364
364
365
365
364
365
364
365
366
369
370
372
371
370
371
371
371
371
371
372
372
373
375
375
376
378
380
380
382
382
382
383
384
385
387
388
389
390
392
394
396
399
401
402
403
403
404
406
408
412
415
416
418
419
420
420
420
420
420
421
421
422
422
422
420
420
421
420
419
418
417
414
411
409
409
409
406
406
404
402
397
393
388
385
382
380
377
374
371
368
365
361
359
356
354
353
350
349
347
346
346
345
344
343
342
341
340
339
339
338
338
337
337
337
336
337
338
341
342
344
343
341
340
339
338
338
340
342
341
340
340
340
341
341
344
344
344
343
342
342
342
343
345
345
346
346
345
344
343
342
344
345
347
347
347
347
347
347
347
346
346
346
345
345
345
345
345
347
347
349
348
348
348
348
348
347
347
345
344
344
343
344
345
346
346
345
345
344
343
344
345
345
346
346
345
344
343
341
341
342
343
344
346
348
350
351
349
347
345
345
343
344
345
345
346
346
346
346
346
346
347
348
348
348
349
348
348
348
348
348
348
350
351
352
354
354
355
356
358
358
358
361
363
366
366
365
365
361
358
356
356
355
356
355
354
353
351
349
348
349
348
347
346
346
344
343
344
345
347
347
347
346
346
345
348
348
348
349
350
349
348
346
345
344
345
345
344
343
342
340
343
350
363
370
387
405
425
446
466
478
482
477
466
448
418
372
318
261
221
204
207
219
239
259
269
288
301
311
319
326
334
343
347
352
354
357
358
359
358
356
354
354
355
355
356
357
357
356
355
356
357
358
361
361
361
360
361
358
357
358
359
362
365
366
368
367
366
366
365
365
364
364
364
365
365
365
366
367
368
369
369
370
369
369
369
370
372
373
373
372
374
375
377
379
380
382
384
384
384
385
388
390
392
395
398
400
402
401
401
402
403
404
406
408
408
409
410
412
413
415
418
420
422
422
420
419
417
417
417
417
416
416
414
412
410
411
409
407
404
400
397
393
390
387
384
381
380
376
372
369
366
365
365
364
361
357
353
349
347
345
346
345
344
342
342
341
340
340
340
339
339
337
337
336
336
337
339
341
343
343
343
341
339
339
338
339
340
341
341
343
341
340
339
339
341
342
345
345
345
345
344
344
344
346
348
347
347
345
345
346
345
348
348
348
348
345
345
346
347
344
346
347
348
349
348
348
348
348
349
349
350
351
351
351
351
351
351
350
350
349
347
347
348
351
352
353
353
352
350
349
347
347
348
349
349
348
348
348
349
350
350
351
351
351
352
350
349
348
349
347
347
347
350
350
351
353
353
354
354
352
352
348
347
348
350
353
356
359
359
360
360
360
359
359
358
359
358
359
357
354
352
351
349
348
348
347
346
345
345
345
346
346
346
347
347
346
345
345
347
347
347
346
346
345
344
343
343
343
345
346
346
346
346
347
347
346
346
345
345
344
342
341
341
344
349
361
377
395
412
433
451
466
473
474
468
456
433
397
346
290
248
224
217
225
240
249
270
289
304
316
325
333
338
342
345
347
349
350
352
352
351
350
349
348
347
348
350
351
353
354
352
351
351
351
353
355
357
358
358
357
357
357
358
359
360
360
360
359
358
358
358
359
360
361
362
360
359
359
361
363
364
364
364
364
363
363
363
365
366
366
367
368
368
370
371
373
376
376
375
374
374
374
376
378
382
385
388
391
390
390
391
392
394
397
399
402
401
403
404
403
404
406
407
408
407
406
405
406
407
410
412
412
411
408
407
404
403
402
401
400
398
394
390
385
383
380
379
378
376
372
369
364
360
360
357
355
353
351
349
347
345
344
344
345
346
345
344
342
340
340
339
339
338
336
335
334
334
334
335
336
336
339
340
339
340
341
342
340
340
340
340
340
340
341
343
345
346
347
346
345
343
342
341
340
341
342
344
344
344
344
344
345
346
346
345
343
341
340
340
342
345
345
346
347
346
344
344
345
343
346
348
351
352
350
349
347
346
345
346
346
347
346
345
346
347
348
349
350
351
350
350
349
351
352
353
353
353
352
352
350
350
350
351
351
351
352
352
352
353
355
355
356
355
354
353
352
353
355
355
355
356
356
356
355
354
353
353
353
354
355
357
357
358
360
362
364
365
367
365
363
360
358
358
356
356
357
358
358
355
352
350
348
346
347
350
352
352
351
350
348
347
348
349
350
350
351
350
350
350
351
351
349
348
347
347
348
349
352
352
354
354
354
352
351
348
348
346
346
347
345
346
350
360
375
394
414
435
454
467
475
475
470
460
439
403
351
298
274
241
227
229
242
261
281
299
313
325
335
342
348
353
356
356
355
352
354
354
356
357
358
359
359
358
357
356
356
357
358
360
360
360
361
361
362
362
362
363
364
364
364
364
365
365
366
365
365
363
363
363
363
364
366
368
370
369
369
369
370
368
368
370
370
372
371
371
369
369
369
370
372
376
379
381
381
381
381
383
385
387
388
388
389
390
391
392
394
397
399
400
401
401
401
402
403
407
408
407
407
407
408
409
413
415
414
414
412
409
408
407
408
410
411
409
406
404
401
400
398
394
391
387
385
382
379
376
377
373
370
367
364
361
358
355
353
351
349
348
347
346
345
344
344
343
343
343
342
341
340
338
338
338
339
340
340
340
339
340
340
341
342
344
345
343
342
341
342
341
341
342
343
344
344
343
343
342
341
342
343
344
345
345
345
344
344
343
344
344
344
343
342
343
343
344
344
346
345
344
344
344
343
343
343
344
344
344
343
343
343
345
346
349
349
348
347
346
346
345
345
347
348
346
347
347
346
346
347
347
348
347
347
346
345
347
346
347
348
349
350
350
350
349
348
347
347
348
347
347
347
348
347
347
348
348
347
347
345
344
343
344
345
346
348
348
348
347
346
346
346
345
347
346
346
346
345
345
345
346
347
348
347
347
346
346
345
345
346
348
347
348
348
349
349
349
349
352
351
351
351
351
348
348
349
350
351
351
350
350
349
350
351
353
355
355
356
356
356
357
357
358
360
361
362
361
362
361
361
362
363
363
361
360
359
358
357
357
357
357
356
355
352
351
348
348
348
350
349
350
349
349
348
348
348
348
346
347
346
345
345
346
346
348
348
349
350
349
350
348
349
351
352
352
352
351
350
347
348
347
348
349
354
364
371
387
406
427
448
464
472
470
461
446
425
394
352
308
267
243
235
241
255
273
292
301
316
327
336
343
347
350
353
355
355
355
354
354
353
352
351
351
352
352
353
353
354
354
355
356
357
358
358
358
358
356
357
358
359
360
362
361
360
360
361
362
363
364
365
364
364
363
363
363
364
365
366
366
366
366
367
368
369
370
370
370
371
370
370
370
371
371
372
373
374
375
377
376
376
377
378
379
380
381
381
382
385
386
388
388
390
391
392
392
394
394
397
399
401
402
403
403
404
404
404
406
405
404
403
403
401
400
400
400
401
399
397
395
392
390
388
386
386
384
382
378
375
371
368
366
366
363
361
360
358
356
354
353
352
351
350
349
348
346
345
346
347
348
348
347
346
345
344
343
343
343
342
343
343
342
342
342
343
345
346
345
345
344
344
344
344
347
348
349
348
347
348
347
347
348
348
348
347
346
346
345
345
346
347
347
348
346
346
345
345
345
346
346
346
346
345
344
344
345
345
346
346
345
345
346
344
344
344
345
345
346
345
345
345
345
345
346
348
348
349
348
348
347
347
347
348
348
348
347
346
346
346
347
350
348
348
347
347
347
346
346
348
349
350
350
350
349
348
349
349
350
350
349
349
348
348
348
350
350
349
350
350
349
349
348
348
349
349
349
349
347
345
345
345
347
348
348
348
348
348
348
348
348
350
350
350
350
351
349
349
349
350
350
351
349
348
347
347
347
348
349
349
350
350
350
350
351
351
351
352
352
352
353
352
352
352
354
355
355
354
354
353
352
352
352
355
354
354
354
353
352
352
351
351
351
351
352
352
350
351
351
351
352
353
353
352
352
352
352
352
352
352
352
352
351
351
352
353
355
357
358
358
359
358
357
358
360
360
362
364
365
365
365
366
367
367
367
366
365
362
361
360
360
362
362
363
362
361
359
356
353
353
350
352
351
350
350
349
350
350
351
351
350
350
349
349
349
349
350
352
351
350
349
348
347
348
349
350
350
349
350
347
347
349
356
369
386
394
411
427
442
453
455
448
432
411
384
351
314
280
255
244
246
257
273
290
305
321
327
338
348
354
356
356
355
356
354
354
355
355
355
355
354
354
354
355
356
357
360
359
359
358
358
358
359
359
360
360
360
361
360
361
361
363
365
365
366
365
364
365
366
367
368
369
369
368
368
368
369
370
368
370
370
370
370
370
371
372
373
374
375
376
377
375
375
376
378
377
378
380
381
380
380
381
383
385
387
389
391
391
391
392
394
395
397
398
400
401
401
401
401
402
403
404
404
404
404
404
403
404
404
406
405
403
401
400
399
399
398
397
395
393
390
387
385
382
381
379
377
374
372
367
364
362
360
359
358
357
356
353
352
350
350
349
349
349
348
347
345
345
344
344
345
345
345
344
344
343
343
344
344
345
345
344
345
344
344
345
345
346
347
347
347
346
346
347
347
348
348
348
349
347
346
346
347
347
347
346
346
347
346
346
348
347
349
349
349
347
345
345
345
345
346
347
348
348
348
347
347
348
348
348
347
346
346
345
345
346
347
349
349
350
350
349
349
349
350
350
350
351
351
350
350
349
349
350
350
351
350
350
350
351
351
351
352
352
352
350
350
350
349
350
351
351
351
350
350
349
350
351
351
352
353
351
351
350
349
349
350
351
351
352
351
349
349
349
350
350
351
351
351
350
350
350
351
351
352
352
353
352
350
350
350
351
352
353
352
353
351
351
352
351
353
354
353
353
352
352
352
352
353
353
353
352
352
352
352
354
353
352
354
353
353
352
352
353
353
353
355
354
353
353
353
352
353
353
355
354
354
353
353
353
354
354
355
355
355
354
354
353
354
355
355
356
356
355
354
353
353
353
354
355
356
356
356
355
355
357
357
357
357
358
356
355
354
354
355
355
356
358
358
359
359
360
361
363
365
367
367
368
368
368
368
368
369
368
367
365
364
364
363
363
363
364
363
361
359
356
355
354
353
353
352
352
352
351
351
351
352
353
353
353
352
350
349
350
350
350
350
349
350
350
350
351
351
352
353
354
353
352
352
354
360
372
387
403
419
434
445
450
449
437
421
398
370
337
318
282
253
236
234
244
259
277
295
312
327
341
350
356
358
357
356
355
355
355
356
357
358
358
357
357
356
356
357
358
359
361
360
361
361
362
363
364
365
366
366
366
365
365
364
365
366
367
368
367
366
366
366
367
368
370
370
369
369
369
368
369
370
371
372
373
372
372
372
373
374
376
376
377
376
376
376
378
378
381
383
384
384
383
383
384
384
386
387
389
391
391
392
393
394
396
397
398
399
399
399
399
400
401
402
404
404
404
403
401
401
402
403
403
403
402
400
398
396
395
394
392
392
390
388
385
383
382
381
379
377
375
372
368
366
363
362
360
360
358
356
354
351
350
349
349
349
349
348
348
346
345
344
343
344
345
345
343
342
341
341
341
342
343
344
345
344
343
344
344
345
345
346
347
346
345
344
344
345
345
346
348
347
347
346
347
346
348
349
349
348
347
347
347
348
348
349
349
351
349
348
346
346
346
347
348
350
348
347
347
347
346
347
348
349
349
348
348
347
347
348
351
350
351
351
350
350
351
350
350
350
350
350
349
349
349
349
349
351
352
352
351
349
349
349
350
351
352
352
351
350
349
350
349
350
351
352
351
351
351
351
349
350
351
352
349
350
350
350
351
350
351
351
351
350
349
349
348
348
348
349
349
350
350
351
351
351
352
352
353
352
350
350
350
350
349
351
351
352
352
352
352
353
352
353
353
353
353
352
352
352
352
353
355
355
355
355
354
354
353
354
355
355
355
355
354
353
353
352
354
355
357
356
355
353
353
353
353
354
354
353
352
352
351
350
351
352
354
355
354
353
352
353
353
354
356
355
355
354
354
354
353
354
355
355
355
354
353
353
353
354
355
356
356
356
357
356
356
356
355
355
354
353
353
354
355
355
357
359
361
362
363
363
363
363
364
365
367
366
366
365
363
362
361
361
361
362
361
359
357
355
354
352
351
352
352
353
352
352
352
353
353
354
352
351
350
350
349
349
350
351
352
352
352
352
353
352
353
354
355
356
355
353
354
357
365
378
394
400
415
429
442
451
449
441
424
403
376
342
303
265
236
222
223
234
251
271
290
309
317
332
345
353
356
357
356
355
354
355
356
357
358
358
358
357
357
357
358
359
360
360
359
360
358
357
359
361
363
364
364
364
364
364
365
366
367
366
366
366
366
367
369
368
369
370
370
369
368
368
367
369
369
370
371
371
371
370
371
372
373
375
375
377
376
376
376
377
378
380
381
381
381
381
382
383
385
387
389
389
390
391
393
393
395
397
398
399
400
400
399
399
400
400
401
403
403
403
402
401
401
401
402
403
402
401
399
398
396
394
393
393
392
391
389
386
384
382
380
379
377
375
372
369
366
364
363
363
363
361
359
357
355
352
351
351
352
352
351
350
349
348
347
348
349
348
348
348
347
346
346
346
346
347
348
347
347
347
345
346
347
347
348
349
349
348
349
349
349
351
350
351
350
350
350
349
349
351
352
353
352
352
352
351
350
351
351
352
352
351
351
351
351
351
352
353
352
352
351
350
350
351
352
353
353
352
351
351
350
350
349
351
351
351
352
351
351
351
352
353
353
354
353
351
351
350
351
352
352
352
352
351
351
351
351
351
352
351
352
351
350
350
349
350
350
351
351
350
350
349
349
349
350
351
352
351
351
350
349
349
349
349
350
350
349
349
347
347
349
351
352
352
352
351
350
351
351
352
353
352
352
351
351
350
350
351
352
353
352
351
351
349
350
351
352
353
354
352
351
351
351
351
352
352
353
353
352
353
352
352
352
353
353
353
352
351
351
351
352
354
353
353
354
353
353
352
352
353
354
354
354
353
354
352
352
353
354
353
353
351
351
351
351
351
352
351
351
352
351
351
351
351
352
353
354
354
352
352
351
352
353
354
355
355
355
354
353
353
353
354
355
354
354
354
354
355
357
357
359
360
361
362
363
364
365
365
369
368
368
367
365
363
361
360
361
362
362
361
360
355
354
352
351
350
350
349
349
349
350
349
349
351
351
351
350
351
349
349
350
351
351
352
351
352
350
350
351
352
353
354
354
353
353
354
357
363
373
385
398
411
426
439
448
450
443
427
405
377
358
317
276
239
217
211
220
236
256
276
295
313
329
341
350
354
356
356
356
357
358
358
358
358
356
356
355
356
356
357
356
358
358
358
358
358
358
360
361
362
363
362
362
362
361
362
364
365
366
367
367
367
367
367
367
369
370
369
369
367
367
368
369
369
370
370
370
370
370
370
371
372
373
374
374
374
374
375
376
377
379
380
381
382
381
382
383
385
387
389
391
392
392
393
394
396
398
398
399
400
400
400
401
401
402
403
403
403
403
402
401
400
401
402
402
401
400
397
394
393
392
392
392
391
389
387
385
383
382
381
380
378
375
372
369
367
365
364
361
361
359
357
356
354
353
353
352
352
350
348
347
345
344
344
346
347
346
345
344
343
343
343
345
345
345
345
344
343
342
343
344
346
345
346
346
345
345
346
347
349
348
349
349
349
348
348
350
349
350
351
351
351
350
349
349
350
351
352
352
352
351
351
351
351
352
352
351
350
350
348
348
348
349
349
349
351
349
349
348
348
348
348
349
349
349
349
349
349
350
351
351
350
349
350
348
348
349
350
351
351
352
351
351
350
350
350
351
352
352
352
352
351
351
351
353
353
353
353
352
351
349
349
350
349
352
352
352
351
350
349
348
349
349
350
349
348
347
347
348
349
350
351
350
350
349
348
348
350
349
350
349
349
349
350
350
350
352
352
352
352
351
352
352
352
353
354
354
355
354
353
352
353
353
354
354
354
354
353
353
353
352
353
354
354
353
352
350
350
350
351
352
352
352
352
351
353
352
353
354
355
353
352
352
351
351
351
351
352
353
352
352
352
352
352
353
353
353
353
353
352
352
352
353
353
353
354
354
353
352
353
354
354
355
355
355
354
353
354
355
356
358
360
361
362
362
363
365
367
368
369
370
370
368
368
367
367
365
364
363
363
362
361
360
360
358
357
356
353
353
351
350
351
352
352
354
353
353
351
350
349
349
352
352
353
353
352
352
351
351
352
353
353
353
355
354
354
356
359
366
375
385
398
412
426
439
448
448
440
433
414
386
350
307
264
227
207
204
214
232
253
274
294
311
326
338
347
352
355
357
358
359
359
360
361
361
360
360
359
359
360
362
363
363
363
363
362
362
363
364
364
364
364
363
363
364
364
366
367
368
367
365
365
365
367
367
369
372
372
371
371
370
369
371
370
372
372
372
371
371
372
373
374
375
376
376
376
376
376
378
378
380
381
383
381
382
382
383
384
386
388
388
391
390
391
392
392
394
396
397
397
397
398
399
401
401
401
402
403
402
401
401
400
400
400
401
400
401
398
396
395
394
393
393
392
390
388
386
384
382
381
380
379
378
375
372
369
366
364
363
362
361
359
356
356
354
353
353
353
353
352
349
349
347
346
347
347
348
347
344
344
344
344
344
345
347
347
346
345
344
344
344
345
346
346
346
347
346
345
345
346
346
346
346
346
346
346
347
348
348
350
350
351
350
349
349
348
349
350
350
350
349
348
347
347
348
349
349
349
349
348
348
349
348
349
350
350
350
347
347
346
346
347
347
347
348
346
345
346
347
348
348
348
348
348
346
346
346
346
347
347
347
346
346
346
346
347
348
349
349
349
349
349
349
349
349
350
350
350
348
349
348
349
349
351
352
352
351
350
350
349
348
349
349
350
350
349
349
348
349
348
349
349
350
349
348
348
347
348
349
349
349
347
347
347
348
348
350
351
352
351
351
350
350
350
351
351
351
352
351
350
350
350
351
352
352
352
351
350
349
349
349
350
351
352
352
352
351
351
351
351
351
352
352
352
352
352
352
353
354
355
354
355
354
352
352
352
353
353
355
356
355
354
354
354
355
356
356
358
356
356
356
357
357
358
359
358
357
356
354
355
357
360
361
363
364
365
366
367
368
369
370
371
371
371
371
369
367
365
363
363
363
360
360
359
358
357
356
356
355
353
353
353
353
352
353
354
354
354
354
353
352
352
351
351
352
353
352
351
351
353
353
354
355
355
355
355
355
355
358
362
371
383
397
408
422
436
448
454
453
442
424
397
359
313
265
224
210
195
198
212
233
256
279
298
315
330
341
351
355
358
359
360
361
361
361
361
360
359
359
360
359
361
362
362
363
363
362
363
364
367
368
368
368
368
367
366
366
366
368
368
370
370
370
370
371
372
373
374
375
375
374
373
373
373
374
375
376
375
375
375
375
375
377
378
380
380
380
380
381
381
381
383
384
386
385
385
385
386
387
389
391
393
393
394
395
395
398
399
400
402
404
405
405
405
406
406
407
408
409
408
409
407
407
406
407
406
406
405
404
403
401
400
399
399
398
398
395
393
390
388
386
385
383
383
381
379
375
373
368
368
367
365
364
361
359
357
356
355
355
354
354
352
351
350
349
349
350
352
351
352
351
349
349
348
349
349
350
349
349
348
347
347
347
348
347
349
349
349
350
349
349
349
349
349
349
349
348
349
349
350
350
351
350
350
349
349
349
351
350
351
353
351
350
349
350
349
349
350
350
350
350
349
349
349
350
350
351
350
349
349
348
347
348
347
347
348
348
347
346
345
345
345
346
348
347
347
347
346
346
346
346
346
346
346
346
346
346
345
346
347
346
345
344
343
342
342
343
345
347
346
346
345
346
345
345
346
347
346
345
344
344
342
343
344
346
347
348
347
346
346
346
348
347
347
347
346
344
344
344
345
346
347
347
347
346
347
346
346
347
348
347
347
347
346
346
347
348
348
350
349
348
347
349
347
348
348
348
349
348
348
347
348
348
349
350
350
350
349
348
348
349
348
348
349
349
348
347
346
346
347
348
349
349
349
349
348
348
349
349
349
351
350
350
350
349
349
349
349
350
351
352
354
355
357
360
363
367
366
367
367
366
365
364
364
364
365
362
360
359
356
356
356
355
353
352
350
348
347
347
348
349
351
352
352
351
350
349
349
350
350
350
349
348
347
346
346
347
349
349
349
350
350
351
350
352
352
355
357
363
371
382
395
411
428
445
457
462
457
445
425
397
356
307
280
229
192
177
180
195
219
246
272
294
312
328
341
349
356
360
362
363
362
361
359
358
358
358
359
360
360
360
361
360
359
359
361
361
362
362
362
364
363
364
365
368
367
368
368
367
366
366
367
369
370
370
370
370
369
370
371
373
375
376
374
374
373
373
373
374
376
375
377
378
378
378
379
379
381
382
383
383
384
381
383
385
387
389
392
392
392
393
395
397
399
401
404
404
404
405
406
406
408
410
411
412
412
413
412
412
415
413
413
413
412
411
410
410
409
409
410
410
408
407
405
401
400
398
396
395
393
390
389
387
385
382
379
378
374
372
369
367
365
364
362
361
360
358
355
353
351
351
350
350
350
350
350
349
348
348
347
348
349
349
348
347
347
346
347
348
348
349
348
348
347
348
347
348
349
349
349
350
350
349
349
349
350
350
350
350
349
347
348
349
350
351
352
353
351
351
350
350
351
353
352
352
352
351
350
350
350
350
351
351
350
349
348
349
349
350
351
350
349
348
347
347
347
349
348
349
348
348
348
346
346
347
347
348
348
347
346
345
345
345
345
348
347
347
347
346
346
346
347
347
348
347
346
346
345
345
345
346
347
348
349
349
348
348
347
347
347
346
347
346
346
346
347
348
349
350
349
349
348
347
347
347
349
348
348
348
347
347
347
348
349
350
350
350
350
348
348
349
349
350
350
350
350
349
348
348
348
350
349
350
351
350
349
349
349
350
350
352
353
353
353
351
351
350
351
351
351
351
350
349
348
348
350
351
352
352
351
350
349
351
351
352
355
359
361
363
364
365
366
369
368
367
366
365
364
364
363
364
361
360
358
357
356
354
354
353
353
351
350
348
347
346
345
346
348
348
349
349
347
347
346
347
347
348
348
348
348
346
347
347
348
350
351
351
351
350
349
350
352
358
366
378
393
408
425
434
451
463
468
465
450
430
399
355
299
241
192
167
161
173
194
223
252
278
301
320
335
341
351
356
358
360
361
362
360
359
358
357
356
357
359
361
361
362
362
361
361
361
361
362
364
364
364
364
364
364
365
366
367
368
369
368
368
368
368
371
371
372
372
372
372
372
372
372
373
374
374
374
374
375
374
375
378
378
379
380
380
380
380
382
383
384
385
386
386
385
387
387
389
391
393
395
396
397
398
399
401
405
406
409
409
410
410
410
411
412
414
416
415
415
415
414
413
414
414
416
414
413
413
411
410
410
409
408
407
406
405
401
400
398
398
396
394
391
387
383
379
376
374
371
371
369
365
362
360
359
357
357
356
355
354
353
350
349
348
347
347
346
347
345
344
344
344
345
346
347
347
348
347
346
346
345
345
345
346
346
346
345
346
346
346
346
346
347
347
346
346
346
347
348
349
350
350
350
349
349
349
349
350
350
349
348
347
347
348
349
349
349
349
349
349
349
348
348
349
349
349
349
349
347
346
346
346
347
347
347
347
345
345
345
345
346
346
345
346
344
343
343
343
344
346
346
346
346
345
345
346
345
347
347
346
347
345
344
344
346
345
346
345
346
343
343
342
343
344
345
345
345
344
344
346
346
345
346
346
345
345
344
343
343
344
345
346
347
347
346
346
345
346
346
346
347
346
346
346
345
346
346
346
347
348
347
347
347
347
348
348
348
349
348
347
347
346
347
346
347
348
348
348
348
348
348
348
348
347
347
345
346
346
347
347
348
349
350
350
349
349
349
350
353
358
361
365
365
366
366
367
367
367
367
366
364
363
363
362
361
360
359
358
357
356
355
355
353
353
352
350
349
346
345
344
344
345
345
346
345
344
343
342
342
342
343
343
344
343
343
343
344
344
345
346
347
348
346
345
347
349
352
359
370
384
391
407
425
443
459
469
470
461
446
423
386
334
272
212
170
151
152
170
196
227
257
270
294
315
331
343
353
357
359
359
359
359
357
355
353
353
353
354
356
357
359
359
360
359
359
360
359
361
361
362
360
361
361
362
363
364
365
366
366
366
367
367
367
368
369
371
371
370
370
370
371
371
372
373
374
374
374
375
375
377
378
378
378
378
377
377
378
380
381
383
385
386
386
386
387
388
390
393
395
397
398
399
399
400
401
403
404
407
408
409
409
410
412
412
414
415
415
415
415
415
415
415
417
416
416
414
413
412
411
410
409
408
407
405
402
400
398
395
394
391
389
386
383
380
377
374
372
371
369
368
365
362
359
358
355
354
354
352
351
349
348
347
347
348
348
347
347
345
344
343
343
344
345
346
346
345
344
344
345
346
347
347
348
347
347
347
347
346
349
349
350
350
349
349
348
350
351
352
353
353
352
351
350
349
349
349
350
351
351
350
349
349
350
349
350
350
350
350
349
348
347
348
348
349
350
349
347
347
347
347
348
348
349
347
346
346
345
345
346
347
347
347
347
346
346
345
346
347
348
347
346
345
344
344
345
346
346
347
347
347
345
345
345
346
348
347
347
346
345
345
345
346
347
348
347
346
345
345
345
345
346
347
348
348
347
347
347
346
347
349
350
349
350
347
347
346
347
347
347
348
348
347
347
348
347
348
348
348
347
347
347
347
347
348
350
351
350
349
348
347
347
348
349
349
349
349
347
346
348
348
348
349
349
349
349
349
349
350
350
351
354
353
355
357
360
363
366
369
370
371
371
369
368
367
365
365
365
366
365
363
361
359
358
358
358
359
358
357
355
353
351
349
349
349
350
349
350
350
349
349
349
350
349
348
348
347
347
346
347
348
348
349
349
348
348
347
348
349
348
348
349
353
359
371
387
396
415
437
456
471
479
479
469
455
432
393
336
269
206
164
146
151
172
202
234
262
275
297
317
333
346
355
361
362
362
360
359
356
356
356
357
357
358
358
359
360
361
362
363
363
362
362
362
362
363
364
364
364
365
365
365
366
367
369
370
372
372
372
372
371
372
374
375
376
377
377
376
376
377
378
380
381
381
381
381
381
380
381
383
385
386
387
387
387
388
386
389
391
393
394
395
396
398
399
402
405
407
408
409
409
410
410
411
413
415
419
420
420
420
421
420
420
422
422
423
422
421
420
418
418
418
417
417
416
415
413
411
410
408
407
406
403
400
396
394
389
387
386
384
382
379
375
372
369
368
367
365
362
360
357
355
353
351
350
348
348
347
345
344
344
343
343
344
345
343
342
342
341
341
342
343
344
344
345
344
343
343
343
344
345
345
345
345
344
344
343
344
344
345
346
346
346
345
344
345
346
347
347
347
347
347
347
347
348
348
348
348
348
347
348
347
347
348
349
348
347
347
348
346
346
347
348
347
347
345
344
342
342
344
345
346
345
345
344
343
343
343
344
345
345
345
344
343
343
343
344
345
345
346
345
344
344
344
345
346
347
347
346
344
343
343
343
343
344
344
344
343
344
343
344
345
345
345
344
344
342
341
341
342
343
344
344
344
343
343
342
342
343
344
344
344
343
343
343
343
345
347
346
346
345
346
345
344
345
347
347
347
347
345
346
346
346
347
347
348
348
347
347
346
345
345
347
346
347
346
347
345
346
348
349
349
350
350
350
350
352
354
357
363
365
366
367
366
366
366
366
367
366
366
364
363
362
360
360
359
360
357
356
355
354
353
353
352
352
349
347
344
344
342
342
343
345
345
344
344
344
342
342
343
344
344
344
344
343
343
343
344
344
345
346
346
345
345
344
345
347
352
361
374
390
400
420
441
463
479
483
480
468
450
420
372
309
241
184
150
140
150
172
202
235
264
290
301
322
337
348
355
359
360
361
360
357
356
354
354
354
355
356
358
359
358
358
357
358
358
360
361
363
364
363
363
364
364
364
366
367
367
367
368
366
367
367
369
369
369
369
369
370
370
370
372
374
373
374
374
374
374
374
376
377
378
378
378
378
378
379
380
382
384
385
385
386
387
388
389
392
394
396
398
399
402
403
404
406
409
410
412
413
414
414
415
417
418
418
419
420
420
420
421
421
422
422
421
421
419
418
416
415
415
415
414
413
410
408
405
403
401
400
397
394
391
387
384
380
377
375
373
371
369
366
364
362
360
359
358
357
356
355
352
350
348
347
346
345
345
346
344
342
342
343
344
345
344
346
344
344
343
343
343
345
344
344
343
343
343
343
344
345
346
347
346
347
346
346
346
347
349
349
349
349
348
348
348
349
349
349
349
348
349
347
347
349
350
350
350
351
350
349
347
347
348
348
348
348
348
347
346
346
347
347
347
347
346
346
345
345
345
345
346
346
345
345
345
344
344
345
344
345
345
344
343
343
343
344
345
346
345
345
343
343
342
343
343
344
344
344
344
342
342
343
345
346
346
345
344
342
343
343
344
345
345
345
345
344
344
345
346
349
348
348
347
345
343
343
344
345
346
347
347
347
346
346
345
344
345
345
346
346
346
346
346
347
348
348
348
347
346
346
345
345
345
347
348
348
348
348
348
349
350
351
352
353
354
356
358
362
366
369
370
370
369
369
367
366
366
366
366
366
365
364
362
359
357
357
355
357
357
356
355
352
350
349
348
348
347
346
345
344
344
344
344
345
345
345
344
343
342
342
344
345
345
346
346
344
345
344
344
345
345
345
345
345
344
348
356
369
388
408
431
453
473
485
488
484
472
454
439
396
334
261
197
155
140
146
167
196
229
257
282
305
324
340
351
357
360
360
360
359
357
356
355
355
355
355
354
354
355
356
357
358
359
359
358
358
359
361
362
363
363
363
362
362
363
364
366
367
368
368
368
368
368
369
370
371
372
372
372
371
372
372
374
375
376
377
378
376
377
378
379
381
382
383
383
384
385
385
387
388
390
392
393
394
394
396
396
399
401
404
407
408
409
410
412
414
416
419
419
420
420
420
421
423
423
423
424
425
426
424
423
422
423
423
422
420
420
417
415
414
412
411
409
407
404
401
399
396
395
393
390
387
383
381
376
373
372
368
367
364
362
359
357
354
352
351
350
349
348
347
344
342
341
342
341
342
342
342
342
341
340
341
341
342
342
342
343
342
342
342
343
344
344
344
345
344
344
344
345
345
347
347
347
347
347
346
347
346
347
348
348
348
349
348
349
349
350
350
350
350
350
350
350
350
350
350
351
351
350
349
349
349
350
349
349
348
349
347
347
347
347
348
348
348
348
346
346
345
346
346
347
348
347
347
346
345
344
345
344
344
344
344
342
342
342
343
345
346
346
345
344
343
342
342
341
343
344
344
343
342
342
343
343
344
345
345
344
342
342
342
342
343
344
345
345
345
344
343
344
344
344
344
344
343
344
345
345
346
347
347
347
347
346
346
346
346
347
347
347
347
346
345
344
345
345
346
346
346
346
346
347
348
349
350
351
351
351
353
354
357
362
364
367
368
368
367
366
365
365
365
366
366
366
364
364
362
361
360
359
359
358
357
356
355
353
351
349
347
347
344
344
343
344
345
346
347
346
346
344
343
343
343
342
345
343
344
343
343
342
341
342
344
344
344
344
343
342
343
346
355
367
384
394
416
438
461
480
489
489
481
466
442
401
341
270
205
160
141
145
163
191
223
254
269
293
315
333
346
354
359
360
360
359
357
356
356
353
353
353
353
354
356
357
358
358
358
357
357
359
359
360
362
363
363
363
363
363
364
365
367
366
368
368
369
369
369
369
370
371
371
371
371
372
374
375
376
377
378
378
377
377
378
379
381
382
384
384
384
385
386
386
388
391
392
393
393
394
395
397
399
402
404
405
405
406
407
409
412
413
416
417
417
417
418
418
419
420
422
423
423
423
423
423
423
423
422
422
421
418
417
416
414
414
414
412
411
408
405
402
400
396
394
392
388
383
380
377
373
370
368
367
367
364
361
358
354
353
351
350
348
347
345
344
342
342
341
342
341
342
339
339
337
337
338
338
340
341
341
340
339
338
339
339
340
341
341
341
340
340
340
341
342
343
345
344
345
344
343
344
344
345
346
346
345
344
345
345
346
347
347
347
347
346
345
345
344
345
346
347
346
346
346
346
345
346
347
346
346
345
344
344
344
345
346
347
346
345
344
343
342
342
344
344
345
344
343
342
343
342
343
344
345
344
343
343
342
341
341
342
342
344
342
342
341
341
340
341
342
343
343
343
343
342
343
344
344
345
343
343
343
342
343
343
344
345
345
345
345
345
344
345
345
346
348
346
345
344
343
343
344
344
345
346
345
345
344
345
345
346
347
347
347
345
345
345
345
346
346
347
345
344
343
343
343
343
345
346
347
346
346
346
346
348
350
351
352
353
355
357
360
363
365
367
367
367
366
364
363
363
363
364
364
363
362
360
359
356
355
355
354
353
352
350
349
349
347
346
345
344
344
344
344
344
343
343
344
343
342
341
340
340
340
341
344
344
342
343
342
342
342
343
344
344
344
343
341
341
343
347
359
376
396
419
442
464
481
490
489
486
473
455
420
366
297
228
176
148
145
159
184
215
245
273
297
318
336
350
357
359
360
359
358
356
355
354
353
352
351
352
352
353
355
356
356
356
357
355
356
357
359
360
361
360
362
362
361
362
363
365
366
367
367
367
367
366
367
369
371
372
372
372
371
371
371
372
373
375
375
375
376
375
375
377
378
380
380
381
381
382
382
383
385
386
387
388
389
390
392
394
398
401
403
405
406
407
409
409
412
414
417
419
420
421
422
422
423
425
426
427
427
426
426
425
424
425
424
424
423
422
420
419
417
415
413
412
410
407
404
401
398
396
393
391
388
384
380
377
373
370
368
366
365
363
361
358
355
354
352
351
350
348
347
346
344
343
343
343
343
343
343
343
343
341
342
342
342
342
342
342
341
341
340
341
341
343
341
343
343
343
342
344
344
346
347
347
346
347
345
346
347
348
350
350
349
349
349
348
349
349
350
351
351
350
351
349
349
350
351
351
351
351
350
349
349
349
349
351
350
349
348
347
347
347
347
348
348
348
348
348
347
347
348
347
347
347
347
347
346
347
348
348
349
348
347
346
345
345
346
347
347
347
347
347
347
346
346
346
347
347
346
346
345
345
345
346
347
347
348
347
347
346
346
347
347
348
348
349
348
347
347
348
348
349
347
347
347
345
345
346
347
347
347
347
346
346
343
345
345
346
348
347
348
347
348
348
347
347
348
348
347
347
347
346
346
346
347
348
348
348
347
347
348
348
349
350
352
352
354
356
358
361
364
367
369
369
368
368
366
366
366
368
367
366
366
364
362
360
359
359
360
357
356
355
353
352
352
351
350
348
347
346
345
344
343
345
346
346
346
345
345
344
344
343
344
344
344
344
343
343
343
343
344
345
345
345
343
342
341
342
344
350
359
376
394
414
438
461
480
491
492
485
468
458
428
377
310
241
185
153
146
157
180
210
241
268
294
315
332
345
353
356
359
359
359
358
357
354
353
352
352
352
353
354
354
355
355
355
356
356
358
360
361
361
360
361
361
361
363
364
365
365
365
366
366
367
370
370
373
373
373
373
373
373
374
375
375
376
377
378
378
376
376
378
379
380
381
382
383
384
384
385
387
389
391
392
392
393
394
395
398
400
402
404
406
406
407
409
411
413
415
417
419
420
420
421
422
423
425
427
427
427
427
426
426
426
427
426
425
426
423
421
420
419
419
416
415
414
411
408
405
403
401
399
396
394
390
387
382
379
375
371
369
366
364
361
359
357
356
355
354
353
351
350
348
346
345
345
346
345
345
344
343
341
341
341
342
341
341
340
339
339
339
339
340
341
342
342
342
341
340
340
341
343
344
343
343
342
342
344
344
347
347
346
346
346
344
347
346
347
347
348
347
348
348
348
348
349
349
350
350
349
349
348
347
348
349
349
350
350
348
348
348
348
348
348
348
348
347
346
346
346
348
347
348
347
347
346
346
345
346
346
347
347
346
345
344
344
345
346
347
347
347
346
345
344
345
345
345
345
345
344
344
344
345
346
347
347
346
346
346
344
345
345
345
346
346
346
345
344
343
343
344
344
345
345
345
345
345
345
346
347
346
346
345
345
344
344
345
346
346
346
346
347
347
347
347
348
348
349
348
348
348
347
348
348
349
349
350
350
350
350
351
351
352
352
353
352
352
350
348
347
347
348
349
347
349
348
349
349
350
351
352
352
353
353
352
353
354
356
360
364
367
370
370
371
370
371
369
368
368
367
366
366
365
365
365
364
363
361
359
357
357
357
357
357
356
354
352
349
346
345
346
346
348
348
347
347
346
346
346
347
348
348
348
347
346
347
347
348
349
349
349
349
348
347
346
346
346
346
347
353
362
376
397
418
442
465
483
492
490
479
466
441
401
344
277
214
170
149
148
159
183
213
246
274
300
319
337
349
357
361
362
361
359
357
355
353
353
353
354
354
354
354
354
354
355
356
358
359
359
360
359
359
359
360
360
361
362
363
362
363
363
363
364
365
366
366
367
367
367
367
368
369
370
370
371
369
370
371
373
374
375
376
376
375
376
377
378
381
383
383
384
385
385
386
386
389
391
392
393
393
394
396
398
398
401
404
407
408
410
411
412
414
416
418
420
421
421
421
422
420
423
423
424
424
424
423
422
420
419
417
418
418
416
412
411
409
407
405
403
401
398
394
391
387
384
381
380
377
374
370
366
363
360
358
356
355
353
351
349
348
346
345
344
344
343
342
342
341
341
340
340
340
340
340
339
338
337
337
338
339
340
341
341
339
339
339
340
340
341
341
341
340
339
340
341
343
343
344
344
344
343
343
344
345
346
348
349
349
348
348
347
346
348
348
348
348
347
347
347
347
347
348
348
348
347
346
346
345
345
345
345
345
345
345
345
345
344
345
346
347
346
345
345
345
345
346
347
347
347
346
345
345
345
345
346
346
346
346
345
345
344
345
344
345
345
344
342
341
341
342
343
343
343
342
343
340
340
339
341
341
341
342
342
342
341
340
340
340
341
342
343
342
343
343
343
343
343
344
343
343
342
341
341
343
344
344
344
344
344
343
343
344
345
345
347
346
344
343
343
343
343
344
346
346
346
346
346
346
347
347
347
347
347
346
345
345
345
346
346
346
347
346
345
345
345
345
347
347
348
348
347
347
346
347
347
348
349
349
350
350
353
355
357
361
364
366
367
367
366
366
365
365
366
366
364
363
364
363
363
363
362
361
359
357
356
356
356
355
355
355
353
351
348
346
345
346
346
347
348
347
345
345
345
345
346
347
347
346
345
346
344
346
346
348
349
349
348
346
344
343
343
344
345
348
356
371
389
410
434
458
480
494
498
492
479
460
429
376
309
241
187
157
151
163
188
203
236
264
289
312
329
343
354
360
363
365
363
360
357
354
353
353
353
355
356
356
356
357
358
358
359
360
361
361
361
361
361
362
362
363
365
365
364
364
363
364
365
366
367
368
369
369
369
369
369
370
372
374
375
375
375
375
375
376
377
377
379
379
379
379
380
381
382
384
385
386
386
387
387
389
390
393
395
396
398
399
400
402
404
407
409
412
413
414
416
417
419
420
423
424
426
424
424
425
427
426
427
427
428
425
423
422
421
420
421
420
419
419
416
413
411
408
406
405
402
398
394
389
385
381
380
379
376
374
371
367
363
361
357
356
354
352
350
348
347
346
345
345
345
344
342
341
340
339
340
340
340
341
341
340
339
338
338
338
338
339
340
339
338
337
337
338
339
341
343
343
342
341
340
340
340
342
343
344
344
344
344
346
345
345
346
347
347
347
347
348
348
349
349
348
348
348
348
348
349
348
348
348
348
348
347
346
348
347
348
349
349
348
348
347
347
347
348
349
350
350
349
349
348
347
346
347
348
349
349
348
347
348
348
348
349
349
348
346
346
345
346
347
349
348
347
346
346
346
345
345
347
346
346
346
346
346
346
346
347
347
348
347
346
346
346
345
347
348
348
348
348
347
347
346
348
349
348
349
347
346
346
346
346
348
348
348
348
347
346
347
345
345
346
346
346
346
346
346
346
347
348
349
349
348
348
347
349
348
349
350
350
350
350
348
348
348
348
348
348
348
348
347
347
348
348
349
350
350
351
350
350
352
353
356
359
362
365
366
367
368
368
368
368
368
366
366
364
363
363
363
362
361
360
358
356
354
354
354
354
354
352
351
349
346
345
344
344
345
347
348
346
345
345
342
344
345
345
344
343
343
344
344
344
345
346
346
346
345
344
343
343
343
345
349
356
368
386
407
429
452
473
487
491
484
478
461
438
397
340
273
213
171
153
156
174
203
234
263
290
312
331
344
353
357
359
359
359
357
355
352
351
350
351
353
355
356
355
356
355
356
356
356
357
358
359
358
358
359
359
360
362
364
363
364
364
365
365
366
367
369
369
368
368
368
368
369
371
372
374
373
372
371
372
373
374
376
379
379
380
380
381
380
381
383
384
385
386
386
388
388
390
392
395
397
399
400
401
402
403
406
409
412
414
416
417
419
418
420
423
425
426
426
428
426
428
427
428
430
429
428
426
424
423
422
423
421
421
420
417
415
412
409
407
405
403
400
397
393
388
383
380
377
375
372
369
366
363
359
357
356
355
354
352
351
350
347
345
343
342
342
341
341
340
339
338
338
339
339
339
339
337
336
336
336
337
337
338
338
339
338
338
338
339
340
341
341
341
341
341
341
342
341
343
344
344
344
344
343
344
345
346
347
348
348
348
347
347
347
348
350
349
349
350
348
346
347
348
349
349
348
348
347
348
347
347
348
350
350
348
348
347
347
346
347
347
347
346
345
345
345
345
347
348
348
347
346
346
344
345
346
347
348
347
347
346
346
344
345
345
346
346
346
346
345
345
344
345
345
345
345
344
344
344
343
344
345
345
346
346
346
346
346
345
345
345
345
345
345
344
343
344
345
346
345
346
345
344
344
344
344
346
347
347
347
347
344
344
343
344
345
346
346
347
347
346
347
347
350
349
349
348
347
346
349
351
353
356
358
360
362
364
364
366
367
367
367
367
366
365
364
363
361
361
359
357
356
354
353
351
351
350
350
349
349
347
347
345
345
346
347
347
347
345
344
344
344
345
346
346
346
346
345
345
344
344
346
346
347
345
344
343
343
346
353
366
384
405
428
439
462
482
495
496
488
473
449
410
351
282
217
173
150
151
168
194
225
256
284
307
319
338
351
358
363
362
360
359
357
356
355
353
352
352
352
353
356
357
356
356
355
354
353
354
355
356
358
358
358
358
359
359
360
361
362
363
364
363
363
364
366
368
368
368
369
369
369
369
369
371
373
374
376
375
376
375
375
377
379
379
380
381
381
381
382
382
384
386
388
389
390
390
391
394
397
399
401
402
403
404
405
407
410
412
415
417
417
418
418
420
424
424
426
427
427
427
426
425
425
425
425
426
425
423
421
419
418
417
415
414
411
408
405
401
397
395
393
390
386
383
379
375
372
368
365
361
359
357
355
352
350
348
347
346
345
345
343
342
340
339
338
339
339
339
338
339
337
337
337
338
338
338
337
336
336
334
333
334
335
336
336
337
337
337
337
337
339
338
338
338
337
337
338
339
340
341
343
343
343
342
341
341
342
343
344
345
345
345
346
346
347
348
348
348
348
347
346
344
345
345
346
347
347
347
346
346
345
346
347
348
348
347
347
346
346
346
348
347
347
347
347
345
346
346
346
347
348
347
347
345
345
344
345
344
345
345
344
343
342
342
343
344
345
345
345
345
344
345
345
346
346
347
347
346
345
345
345
345
346
347
348
348
347
346
345
345
346
347
346
346
347
345
345
346
346
346
347
347
346
346
345
345
345
345
346
347
347
347
345
346
346
347
347
348
348
349
347
347
347
348
349
348
349
348
347
347
347
348
349
350
349
349
348
347
347
347
348
349
348
347
346
344
344
343
345
346
348
349
349
346
347
347
349
352
353
353
352
350
348
349
350
349
352
353
354
356
357
359
361
362
363
364
364
365
363
363
362
362
361
360
359
357
356
356
354
353
353
351
350
348
347
346
347
348
349
350
350
349
349
347
346
346
345
346
346
346
344
344
344
345
347
349
351
351
351
350
347
345
345
347
352
362
377
398
417
439
450
473
489
498
494
483
466
439
394
333
266
209
174
163
171
191
219
248
274
297
315
323
336
346
352
357
361
361
362
361
358
356
354
352
352
354
356
357
357
356
354
355
355
357
359
361
362
362
361
361
361
361
362
363
363
363
361
361
361
362
364
365
365
367
366
367
368
368
371
371
372
372
372
372
372
372
373
373
374
375
376
377
378
379
380
381
382
383
384
387
385
387
388
390
392
395
397
400
401
401
404
406
409
410
412
414
413
414
415
417
418
421
422
423
422
422
422
422
423
423
423
423
422
420
418
417
415
415
414
414
413
411
408
406
404
401
399
396
392
387
383
378
375
373
371
369
367
364
361
360
358
356
354
353
351
349
348
346
346
343
342
342
341
341
339
340
339
339
339
339
341
341
343
342
341
342
343
342
343
342
342
341
340
340
341
341
342
343
342
342
342
343
344
346
347
348
349
349
350
350
349
350
350
349
348
349
348
348
349
350
350
351
351
351
350
350
350
349
349
349
350
350
350
350
350
350
351
352
351
350
349
347
347
347
348
347
348
348
350
349
349
349
350
350
351
351
350
349
349
349
349
350
351
351
350
350
349
348
348
347
348
349
350
350
349
348
347
346
346
346
347
348
345
345
345
346
347
348
351
350
352
350
348
347
348
348
349
350
350
349
349
348
348
348
349
349
350
350
350
349
348
348
349
349
350
349
350
350
351
352
352
353
354
355
353
354
351
350
350
351
352
352
353
353
353
352
353
355
357
359
360
360
357
356
355
355
356
358
360
361
363
363
364
364
365
366
365
363
364
364
365
364
366
368
367
364
361
360
359
359
359
358
357
354
351
349
348
349
350
351
351
350
349
347
346
347
347
348
349
350
348
347
347
346
347
347
349
351
353
353
352
352
352
351
351
352
356
364
376
391
408
429
451
472
486
490
494
491
482
463
431
384
324
264
217
193
191
201
220
242
262
279
291
301
309
318
324
333
342
349
355
358
360
361
360
360
360
360
359
358
355
355
355
356
358
359
362
362
363
364
365
366
367
368
369
370
369
368
368
366
367
368
369
370
371
371
371
373
374
375
377
378
378
377
377
377
377
378
377
377
378
379
379
381
382
384
387
388
387
386
386
385
387
389
391
393
395
395
397
399
401
403
407
410
411
412
412
413
414
416
417
421
421
423
425
426
427
428
429
430
429
429
426
423
422
422
420
420
419
417
415
414
412
410
410
409
407
404
400
395
391
386
382
379
377
374
372
369
366
363
361
359
357
357
356
355
353
352
348
346
344
342
342
341
340
340
339
339
339
339
339
339
340
337
336
336
336
337
337
337
337
337
337
337
337
338
339
341
340
340
340
340
340
343
345
346
346
345
345
344
344
344
345
345
347
346
346
346
347
348
349
350
349
348
347
346
347
345
345
344
347
349
349
350
351
351
351
351
350
350
347
346
345
347
346
348
349
350
351
351
350
350
348
348
348
349
349
348
347
348
347
347
347
348
348
348
348
347
345
344
344
344
345
344
344
345
346
347
348
348
349
349
348
348
347
347
348
348
348
347
346
345
345
345
346
347
349
351
350
349
347
346
346
348
348
350
350
348
348
348
346
348
350
351
352
352
351
352
352
353
354
355
357
356
356
357
358
360
362
363
364
363
363
364
365
366
366
365
364
364
361
359
357
355
353
352
351
351
349
347
345
344
343
343
345
346
346
345
345
344
344
344
344
345
346
345
345
343
343
342
343
347
350
349
348
346
344
344
345
348
355
366
380
395
415
435
456
472
480
480
473
458
435
399
351
294
245
212
199
198
207
223
243
263
281
295
304
312
319
327
335
343
349
354
357
359
358
357
354
354
354
354
354
354
354
354
355
354
356
358
361
362
362
361
360
360
361
363
362
362
363
364
364
365
365
367
366
368
367
366
366
365
365
367
369
373
373
373
374
373
372
373
373
374
376
377
377
377
377
378
380
382
385
385
386
387
388
389
390
393
396
396
396
396
397
397
401
404
407
409
411
411
412
412
413
415
417
419
420
421
421
420
420
419
419
419
418
417
417
416
415
414
414
413
411
410
405
402
399
396
393
391
389
387
383
379
375
374
371
368
366
364
362
359
356
353
351
350
350
347
343
342
341
341
341
341
341
339
340
339
339
339
337
337
338
339
340
340
340
340
340
342
339
340
339
338
339
339
339
339
338
339
339
338
337
337
337
337
338
339
342
342
343
342
342
342
342
342
344
344
344
344
344
343
343
343
345
346
347
347
347
346
347
347
348
349
349
349
348
348
348
348
348
349
350
350
349
348
347
346
347
347
348
348
349
348
347
347
348
351
351
350
350
348
348
346
346
347
348
349
349
351
351
350
349
349
350
349
347
346
346
346
346
347
348
348
349
348
347
347
345
345
346
349
348
349
348
349
349
349
349
349
348
348
347
348
348
350
352
353
356
354
354
354
353
353
354
355
356
357
358
358
359
359
361
361
364
364
364
364
362
361
359
360
360
361
362
360
358
355
353
352
351
351
348
346
345
344
344
344
346
347
347
347
346
345
344
343
344
345
345
344
344
344
344
344
343
344
344
344
344
344
343
342
342
348
358
371
388
407
427
446
462
473
477
472
464
446
415
370
317
265
245
218
212
218
233
253
271
288
300
310
317
324
331
339
344
350
354
356
357
356
354
353
352
352
352
352
352
353
354
354
354
353
354
354
358
359
359
358
356
356
358
360
359
361
361
362
362
361
361
359
358
358
359
361
362
364
364
364
363
365
365
365
366
367
368
368
369
371
370
370
370
370
370
371
373
376
379
381
382
382
383
384
386
388
390
391
393
394
395
395
396
398
400
401
403
404
405
406
408
411
412
413
414
412
413
414
414
414
413
414
412
411
410
408
408
406
406
405
403
400
398
394
392
389
386
384
381
378
377
373
370
368
365
362
361
359
357
354
353
350
348
347
344
343
342
340
338
337
337
336
337
338
338
336
335
335
335
335
337
338
338
337
335
335
335
335
336
338
338
339
339
338
337
337
338
340
340
340
341
340
339
339
338
338
339
339
340
340
342
342
343
344
345
345
344
343
341
341
341
340
342
343
344
345
345
344
344
343
345
346
347
348
347
347
344
344
344
348
349
350
350
349
346
345
344
345
347
349
348
349
348
348
347
349
350
351
351
350
349
348
348
347
348
347
347
348
348
346
346
346
347
348
348
348
346
344
343
343
344
346
347
347
346
346
345
346
345
345
345
344
345
345
345
346
346
348
349
350
351
350
349
347
346
346
348
349
351
352
353
353
352
351
350
351
352
353
353
354
355
357
359
357
358
360
362
363
364
364
364
363
361
359
357
356
355
355
355
355
354
354
354
352
348
345
344
345
346
346
346
344
342
342
342
344
347
349
348
347
345
343
341
340
340
342
344
345
345
343
342
341
340
339
340
342
351
362
380
400
422
443
461
473
475
474
466
455
438
408
361
307
259
227
215
218
231
248
269
287
301
312
322
332
342
349
351
353
354
354
352
352
352
352
353
352
352
351
351
351
351
350
350
350
351
352
352
352
354
356
358
359
361
360
360
358
356
355
356
356
358
360
361
361
361
361
362
364
365
366
366
366
366
365
365
367
368
369
371
372
370
370
369
370
370
372
373
376
374
374
374
375
380
382
385
389
389
390
391
393
395
396
398
399
400
402
403
403
404
405
408
409
412
413
413
413
413
414
415
414
414
414
415
413
413
414
412
410
408
406
403
403
403
402
401
398
394
389
385
381
378
375
373
371
369
367
365
363
358
356
353
351
349
348
347
345
344
345
345
344
346
345
344
342
341
341
340
340
341
342
343
340
339
339
339
340
342
342
342
342
341
341
339
340
340
342
343
343
343
342
342
341
342
342
342
344
343
341
341
341
342
345
345
345
345
344
343
344
346
345
346
346
345
344
344
344
344
345
346
347
348
348
347
347
347
347
347
347
347
348
347
347
348
351
352
352
352
354
354
353
352
351
351
352
352
352
351
350
349
350
351
352
352
352
351
350
348
349
349
350
349
349
349
348
347
346
348
347
349
350
350
350
351
349
349
348
349
350
352
351
349
348
349
349
351
351
350
350
348
347
348
348
350
351
352
351
350
349
350
349
349
350
350
351
352
352
352
352
352
351
352
353
354
354
353
352
353
354
356
359
359
359
358
358
358
359
362
364
366
366
366
366
365
365
362
362
361
361
361
359
356
355
354
353
353
352
350
349
349
349
349
348
347
346
345
346
345
345
345
346
348
349
349
349
348
347
345
346
346
346
347
346
346
347
346
345
346
347
349
351
357
369
386
404
426
449
468
479
479
475
465
452
428
391
342
292
252
231
226
233
248
268
288
304
314
323
332
340
347
353
355
359
360
358
357
357
355
354
354
351
348
347
349
351
351
352
353
355
357
358
357
357
355
355
355
357
359
359
357
355
356
358
360
363
364
363
362
361
361
363
364
366
367
366
365
365
365
366
367
368
369
370
370
370
371
372
373
373
374
374
376
375
377
379
380
383
384
385
385
385
386
387
389
391
393
396
399
400
400
400
403
405
405
406
407
409
410
409
409
409
410
413
416
419
419
417
415
412
409
406
407
409
408
406
403
400
399
396
393
391
390
386
383
380
378
376
375
371
367
362
356
350
349
352
355
356
355
353
351
348
346
346
348
346
346
345
342
340
339
339
339
341
343
343
341
341
341
341
341
342
344
345
344
343
341
340
341
341
343
344
345
347
348
346
345
343
343
344
344
343
342
341
342
343
347
349
348
345
341
340
342
344
346
346
345
345
343
342
342
344
346
349
350
352
352
349
344
339
339
341
344
348
348
346
345
345
345
347
348
349
349
350
349
348
346
346
346
347
348
349
350
349
349
350
350
349
347
346
345
344
345
345
347
350
352
353
352
350
348
347
347
348
348
348
348
348
347
345
345
347
347
346
347
348
349
350
350
351
350
348
347
346
345
347
348
350
352
353
353
353
351
348
347
345
345
345
346
348
347
348
349
349
348
350
352
354
355
355
354
354
352
352
352
353
353
354
356
356
355
354
355
354
354
353
354
356
358
360
361
361
360
361
362
362
361
363
365
366
365
364
363
362
360
359
361
362
360
358
356
358
357
355
355
355
355
353
352
351
351
350
351
352
356
357
357
354
349
348
347
347
347
349
348
350
353
355
356
356
355
353
352
352
353
354
354
350
350
350
349
350
355
366
382
401
421
440
455
464
470
471
467
457
436
400
378
327
284
256
247
249
262
282
301
316
324
331
336
341
344
348
352
357
360
361
360
360
359
359
357
355
352
350
350
354
355
356
356
357
359
360
359
358
359
361
363
367
369
368
365
359
358
358
362
365
365
366
367
367
366
365
365
367
370
372
369
365
364
361
363
365
369
372
373
374
374
374
373
373
373
374
372
373
375
379
381
381
382
385
387
388
389
387
385
387
392
395
397
398
397
395
395
398
401
403
404
403
403
403
404
405
407
409
412
412
411
409
409
409
412
412
411
410
408
403
399
394
391
390
390
390
387
383
382
379
377
378
378
374
367
361
355
352
350
352
356
358
358
360
357
353
350
347
342
340
339
341
343
345
346
343
341
340
340
342
344
344
344
343
344
346
348
348
346
346
346
345
344
346
347
345
345
345
347
348
347
346
345
346
346
346
343
342
346
349
349
346
344
342
341
343
346
351
352
350
345
342
341
341
344
345
346
350
353
354
355
353
347
345
341
340
340
340
342
344
343
344
346
348
351
353
353
351
350
347
346
346
344
343
342
343
344
345
346
350
352
354
354
351
346
344
342
345
346
349
349
351
351
348
347
348
348
349
352
351
351
350
349
348
348
348
346
343
342
344
343
342
342
345
349
351
350
350
349
348
347
346
345
347
345
345
345
345
344
347
349
350
351
351
351
349
349
350
351
354
353
352
350
348
348
347
348
349
350
351
353
354
355
354
355
357
358
357
356
356
357
358
360
361
362
363
364
364
364
363
362
361
358
358
358
358
357
356
355
356
356
358
357
356
354
351
348
344
344
346
349
351
352
351
350
349
350
351
351
349
347
345
345
344
344
345
347
347
347
347
347
347
348
351
354
354
351
346
343
341
342
345
353
364
370
383
397
414
434
452
462
466
465
460
448
425
384
337
293
266
255
255
265
279
293
300
313
324
331
338
342
345
348
349
350
352
353
353
352
351
352
351
351
351
354
355
355
354
353
351
350
352
353
355
356
357
358
357
357
357
357
358
359
361
361
360
360
362
361
363
363
362
361
361
361
360
359
360
363
365
365
365
364
363
363
365
367
370
371
371
371
371
371
372
374
374
373
372
372
372
375
377
380
383
386
390
390
389
390
390
390
391
391
394
394
395
396
397
399
400
403
405
404
402
399
400
402
404
405
404
404
402
400
398
398
398
399
397
394
391
389
386
384
382
380
378
376
374
370
365
362
360
359
358
358
356
356
355
354
352
350
347
344
341
339
338
338
339
341
343
344
345
344
343
341
340
339
340
341
341
339
339
340
340
340
341
344
344
345
345
344
343
343
342
343
344
344
345
344
343
342
342
344
345
346
347
344
341
342
343
344
346
347
346
345
343
342
343
345
348
348
347
347
346
345
345
346
346
347
348
350
352
350
348
346
346
348
350
349
350
349
350
351
353
354
353
352
350
350
350
349
348
347
348
349
349
351
349
349
349
349
350
351
351
351
350
349
348
348
347
347
347
349
351
349
349
349
348
347
347
347
347
348
348
348
348
348
348
349
348
347
347
346
347
349
350
351
351
349
348
347
348
350
351
352
352
351
351
351
352
353
351
350
349
349
350
352
354
355
355
354
352
351
349
349
346
345
346
348
351
354
353
352
353
352
353
354
355
354
353
351
350
352
354
356
357
357
356
356
353
352
350
349
350
351
352
353
355
356
357
357
358
359
360
361
360
360
361
362
363
363
363
363
362
361
360
359
361
360
360
360
361
359
358
357
356
354
352
351
349
347
348
350
353
353
355
356
355
353
352
351
350
349
350
351
351
351
350
349
349
350
352
352
352
350
348
346
346
348
352
357
366
378
389
407
422
438
451
458
457
454
444
430
406
373
334
298
273
262
264
272
285
298
313
324
335
344
351
353
354
354
355
356
357
358
358
358
356
355
355
356
356
356
357
357
357
356
356
357
358
359
360
361
360
360
359
359
359
360
360
360
360
360
360
360
361
363
364
364
365
364
363
363
364
364
365
364
365
364
363
363
364
366
367
369
369
369
368
368
369
372
374
375
375
375
375
375
375
376
377
379
380
383
385
387
389
391
392
392
393
392
390
390
392
395
397
398
399
400
399
397
397
397
398
398
399
399
399
399
398
397
396
395
395
394
394
391
388
387
385
382
380
379
377
375
372
369
366
366
364
364
363
361
357
355
353
352
352
351
351
351
350
349
348
348
348
348
347
346
344
344
344
344
346
348
349
350
350
348
347
346
347
347
348
348
349
348
347
347
348
349
351
351
351
350
350
349
350
350
352
353
353
352
352
351
350
350
350
350
351
352
349
349
349
350
351
352
354
354
353
351
350
349
350
351
352
353
353
351
350
350
351
351
352
353
353
353
352
352
353
352
352
352
353
352
352
351
352
352
353
353
352
352
352
351
351
352
353
354
354
354
353
352
350
351
351
351
352
352
354
351
351
350
350
350
351
352
353
352
351
351
350
350
351
351
351
350
349
348
349
351
352
353
354
353
352
351
351
351
353
353
353
352
352
351
351
352
353
354
354
354
352
352
352
353
354
355
355
356
353
353
352
352
353
353
355
357
357
356
355
354
353
353
354
355
356
355
354
354
354
355
356
356
355
354
352
354
355
355
356
356
356
356
355
356
355
354
355
355
355
356
355
355
355
353
354
355
356
356
356
355
354
357
356
359
361
361
360
357
355
354
354
356
358
359
361
361
362
363
364
364
366
367
367
367
367
367
367
367
367
366
365
364
363
362
361
360
360
360
360
358
356
354
353
352
352
352
354
354
355
355
355
354
354
354
354
354
352
352
351
351
351
353
354
355
354
354
353
352
351
350
350
350
353
357
365
377
392
406
424
438
449
449
442
430
414
392
368
354
324
295
274
264
265
273
287
302
318
332
342
350
355
356
356
357
359
359
358
357
357
357
356
356
357
359
360
358
357
356
356
356
357
358
360
360
360
360
360
360
361
361
361
362
361
361
362
363
364
365
366
365
365
364
364
364
364
365
365
365
366
367
367
368
368
369
369
370
368
369
369
369
369
370
372
374
373
374
374
375
376
378
381
381
381
382
381
381
383
384
386
388
390
391
391
390
391
391
391
394
396
395
396
395
395
394
394
395
396
397
397
397
396
393
394
393
393
392
389
387
385
385
384
383
383
382
381
379
377
374
371
369
367
366
365
363
360
358
357
356
356
356
356
354
353
352
350
349
350
350
351
352
350
349
348
347
347
348
349
350
349
347
347
347
347
347
348
349
348
349
348
349
348
349
350
350
350
348
347
347
346
347
348
349
349
349
349
349
348
348
349
350
351
351
349
349
350
349
349
349
349
348
348
347
347
348
348
348
350
349
348
347
347
347
347
347
348
348
349
349
347
348
348
349
349
350
350
349
349
350
351
351
351
351
350
350
349
348
348
348
349
351
352
350
349
348
347
347
347
348
350
349
349
348
348
348
349
349
349
348
347
345
345
345
346
347
348
348
348
348
347
347
347
347
348
349
348
348
346
348
348
347
349
350
349
349
348
347
348
349
349
350
349
348
348
348
349
349
349
349
349
350
349
349
347
348
348
347
350
350
350
348
348
348
348
349
350
349
349
349
348
348
348
350
352
352
351
350
349
349
349
349
350
352
352
351
350
350
350
351
352
352
352
352
351
351
351
352
352
353
353
354
353
353
353
352
353
353
355
355
354
353
353
353
353
354
354
355
355
354
354
353
353
354
355
356
357
357
356
356
356
355
355
356
357
357
358
358
357
357
359
360
362
363
363
363
363
364
364
365
365
365
364
362
360
359
360
359
359
359
358
356
355
352
351
351
352
354
352
352
352
352
352
352
352
352
352
352
352
352
352
352
352
352
353
353
352
351
352
352
353
354
354
353
352
351
352
354
363
374
390
402
417
430
439
442
436
427
412
393
368
339
307
277
257
251
256
266
282
291
307
322
335
346
354
357
358
358
357
357
357
358
358
359
359
359
357
357
357
357
358
360
361
362
361
360
358
359
360
362
364
365
364
364
362
363
362
363
364
364
365
365
365
365
365
365
367
367
368
367
367
366
366
367
368
369
370
371
370
370
370
370
371
371
372
372
373
372
372
373
374
376
377
378
378
379
379
381
383
385
387
387
387
385
385
385
387
388
392
392
393
394
395
395
395
396
398
398
398
398
397
396
395
396
396
395
394
393
393
391
391
389
388
387
386
384
382
380
378
377
376
375
374
371
368
366
364
363
362
361
360
359
359
357
356
356
355
355
354
353
351
350
350
350
350
350
350
350
350
349
347
347
347
347
348
348
349
349
349
348
347
348
349
351
351
352
351
350
348
348
347
348
346
348
348
347
347
348
349
351
352
353
354
354
351
350
350
351
352
352
352
352
350
349
349
350
351
351
352
351
351
350
349
350
350
351
351
351
350
350
349
349
350
350
351
351
350
350
350
350
350
352
352
352
352
353
355
355
356
356
354
353
353
353
352
352
352
353
352
353
353
353
353
353
354
354
354
353
352
351
350
350
351
351
352
351
351
351
350
350
350
350
351
350
352
353
354
353
352
352
352
352
351
352
350
350
350
350
351
352
352
353
352
352
351
351
351
352
353
353
353
354
352
353
353
355
355
355
355
353
353
353
353
354
356
355
355
354
353
352
352
352
354
354
355
355
355
354
355
355
356
355
354
355
353
352
351
351
351
352
353
353
352
352
351
352
353
354
354
355
354
354
353
353
354
354
354
354
354
355
354
354
354
356
356
356
355
354
354
353
354
354
355
355
356
356
356
356
355
355
357
355
356
356
356
354
354
354
355
357
358
359
359
359
360
362
364
367
367
368
368
369
367
367
366
365
363
363
362
361
361
360
359
358
357
356
355
352
352
352
352
353
355
355
357
356
355
353
352
352
353
354
355
354
354
353
353
352
353
354
355
355
355
354
353
352
353
354
357
359
362
369
377
389
401
415
427
432
439
437
430
417
400
378
349
316
282
255
242
241
249
265
282
301
318
333
344
351
353
356
357
357
360
360
360
360
359
360
359
358
359
360
360
360
360
360
359
360
360
360
360
360
359
360
359
361
361
362
363
364
364
365
365
366
366
367
367
367
367
365
365
366
367
367
368
368
367
367
366
366
368
369
371
372
372
371
371
371
372
374
374
375
375
374
374
375
376
378
380
382
382
383
383
384
385
388
388
389
389
389
390
391
392
393
394
396
397
398
398
398
398
397
396
396
395
395
394
394
393
393
392
392
392
391
389
388
386
384
384
383
384
381
380
377
374
372
370
367
366
366
365
363
360
359
358
358
358
357
355
354
353
351
350
350
350
350
350
348
347
345
345
346
345
347
349
350
349
348
346
347
348
348
349
347
347
347
347
347
349
348
349
349
349
350
348
348
349
351
352
352
352
352
349
349
350
352
354
355
355
353
352
351
351
352
352
352
353
353
352
350
350
349
349
350
349
350
348
348
348
348
348
349
350
351
351
351
350
351
352
352
352
353
353
352
351
350
349
350
351
353
354
353
352
351
351
352
351
351
351
350
349
348
348
349
350
351
353
354
352
351
350
350
349
349
349
348
347
347
347
349
348
349
349
349
348
346
346
346
346
347
349
349
351
349
348
348
349
349
349
350
349
347
346
346
348
348
350
350
350
350
349
348
348
348
350
351
352
353
352
352
351
352
352
352
353
353
353
353
352
352
352
353
353
353
352
351
351
350
351
351
351
350
351
350
350
350
351
352
352
352
353
351
349
349
349
350
351
352
352
352
351
351
352
353
354
354
354
354
353
353
354
352
353
354
354
356
355
355
354
354
354
355
355
355
354
353
353
355
355
356
356
356
355
355
355
356
355
356
357
358
359
358
358
357
358
359
362
365
366
368
368
367
366
366
367
367
367
366
363
361
360
360
361
361
361
360
357
355
354
355
354
355
356
355
354
354
354
353
353
354
355
355
354
353
352
352
352
353
354
354
355
354
354
354
355
355
355
357
358
359
363
369
377
387
398
410
423
433
438
437
430
418
401
377
344
305
286
254
234
229
237
252
270
289
305
320
332
342
349
354
358
360
361
361
360
359
358
359
360
360
360
360
360
360
360
361
362
363
364
363
362
363
364
364
365
365
365
366
366
366
366
367
367
368
370
370
370
369
369
369
370
370
370
371
371
371
370
371
371
371
372
372
372
371
371
371
372
373
374
375
374
375
376
377
379
380
382
383
383
384
385
386
387
386
387
389
390
392
394
394
394
396
398
400
400
400
400
400
399
400
401
402
402
402
401
400
399
399
397
397
396
397
395
394
393
392
390
389
387
385
384
382
379
378
377
375
373
370
368
366
364
363
363
362
362
360
360
356
353
351
351
351
352
353
353
354
352
350
348
350
349
349
349
349
349
348
348
347
347
347
348
348
348
348
347
348
348
348
350
350
351
351
350
350
349
350
351
352
352
352
352
353
353
354
355
355
355
355
354
354
352
351
354
355
356
356
355
354
353
353
354
355
355
354
354
353
351
350
350
350
352
352
353
352
351
352
351
353
355
356
354
353
352
352
352
352
353
353
354
354
353
353
351
351
351
351
351
352
352
352
351
350
351
352
353
354
354
353
352
352
352
352
353
352
351
350
350
350
350
351
351
352
351
351
350
350
350
351
352
354
352
351
350
349
348
348
349
350
351
352
353
352
352
353
353
354
353
353
352
352
352
352
352
352
352
353
353
354
353
352
352
354
354
354
354
354
353
352
352
353
354
354
354
353
353
353
354
353
353
353
352
351
350
350
350
351
352
353
354
353
353
352
352
353
353
353
352
353
352
352
353
353
352
353
352
352
352
351
352
352
352
353
354
354
353
352
352
352
353
354
356
356
356
355
354
355
355
356
355
355
356
357
357
358
358
359
361
364
364
364
364
363
365
366
367
368
367
365
363
361
358
357
358
359
358
357
356
354
352
351
351
351
352
353
353
352
352
351
351
351
351
351
350
350
349
348
348
350
351
352
352
352
352
351
351
351
352
353
354
356
359
365
372
383
395
408
421
432
437
437
430
419
401
375
359
320
279
246
229
224
232
248
267
286
302
315
326
334
343
350
355
358
360
362
362
361
360
359
359
359
360
359
359
360
359
360
360
361
362
362
362
363
364
365
365
367
366
365
366
366
366
366
367
368
369
370
370
370
371
372
373
374
375
374
374
373
372
373
374
375
376
376
376
377
377
378
378
378
378
378
379
379
379
379
379
381
384
385
387
388
388
387
387
387
388
390
392
394
393
394
394
396
398
399
399
400
400
400
400
401
400
401
403
402
401
401
400
400
399
399
398
397
396
393
391
389
389
388
388
386
385
382
381
378
376
375
373
372
370
367
365
364
361
361
360
359
359
358
356
354
353
353
352
352
351
351
350
349
349
348
348
349
350
350
349
348
347
347
348
348
349
349
348
347
349
348
348
349
350
350
350
350
350
350
351
351
352
353
353
353
353
352
351
351
353
354
354
355
355
355
354
353
353
353
354
354
353
353
350
351
351
353
353
353
353
351
351
350
350
350
352
352
350
349
350
348
347
348
348
350
350
350
350
350
350
351
352
352
351
351
350
350
349
349
349
349
349
348
348
349
348
348
350
351
351
351
350
350
348
348
348
348
348
348
349
348
347
347
348
348
349
349
349
348
348
346
345
346
347
347
347
348
347
346
346
346
347
346
347
348
348
349
349
349
350
351
351
352
351
351
349
348
348
349
348
349
348
348
348
348
349
349
350
350
351
350
349
350
352
352
353
353
354
352
351
351
351
351
353
353
352
351
350
350
350
351
351
352
352
351
351
350
350
351
352
352
354
355
354
352
351
351
352
353
353
353
353
353
354
354
355
357
359
361
363
365
365
365
365
365
366
366
364
363
360
359
358
358
359
359
357
355
355
352
351
351
351
351
351
350
348
348
349
349
350
349
350
349
349
349
348
348
348
349
349
350
350
349
348
350
349
349
350
351
352
354
359
366
375
387
401
415
427
435
437
433
423
408
386
354
315
294
255
228
215
216
228
245
265
284
300
314
325
335
343
349
352
355
356
356
357
357
358
359
361
361
361
360
358
357
357
358
358
359
361
360
360
361
361
362
362
363
363
362
363
363
364
365
366
367
368
369
368
367
366
366
367
368
369
369
371
370
370
371
372
372
373
373
374
373
374
372
375
374
376
377
377
377
377
378
380
382
383
383
383
383
383
385
385
388
391
394
394
395
395
395
395
396
397
399
400
400
399
399
399
399
401
402
402
402
402
401
400
399
399
397
396
396
395
394
392
390
389
387
386
384
382
378
376
376
374
373
372
370
368
365
363
360
358
358
358
357
356
356
354
352
350
350
350
349
350
349
349
347
347
347
347
349
350
350
350
349
349
348
347
348
348
347
348
346
346
347
348
349
350
350
350
349
349
349
349
349
350
351
352
352
352
352
352
353
353
354
354
354
353
352
353
354
354
354
354
353
352
353
353
355
353
353
352
352
351
351
351
351
353
352
352
352
352
350
351
350
351
351
352
352
351
351
351
351
350
351
352
352
352
352
351
351
350
351
351
352
351
352
352
351
351
350
351
351
352
354
352
350
350
350
351
351
352
352
352
351
350
350
349
349
350
350
348
348
347
347
348
348
349
348
349
347
347
347
347
348
349
350
350
349
348
348
349
350
351
351
352
351
350
349
350
350
352
353
353
353
350
350
350
351
352
352
353
352
350
350
349
351
350
351
351
351
350
350
351
351
351
353
353
353
353
352
350
349
350
351
352
352
353
353
353
352
352
352
353
354
354
354
354
355
355
356
358
361
364
367
367
367
367
368
367
367
367
366
364
362
360
359
357
357
357
356
355
353
351
349
348
348
350
351
352
351
351
350
350
350
350
350
348
347
347
347
348
349
350
351
349
348
347
347
348
349
351
353
354
355
357
363
371
381
386
398
410
422
430
437
437
431
418
399
369
332
289
251
225
214
214
227
245
266
287
295
312
325
337
345
352
356
359
359
359
358
357
358
360
359
359
359
360
360
361
362
363
364
364
365
364
363
364
364
365
365
366
368
366
365
365
366
367
368
370
371
371
371
370
368
367
367
368
370
373
373
372
372
371
373
374
376
376
374
374
374
376
376
378
379
380
378
378
378
378
379
380
381
383
383
384
385
386
387
389
391
393
394
393
394
394
395
396
397
399
400
399
400
400
401
401
402
403
404
403
401
400
400
401
402
402
402
401
399
397
395
392
390
389
387
386
383
380
377
376
375
373
372
370
368
365
362
361
361
360
360
358
358
355
354
353
352
352
351
352
353
350
349
347
348
348
349
349
349
348
348
347
346
346
347
348
349
350
349
349
348
347
348
348
349
349
349
349
348
349
348
348
349
350
351
351
351
351
351
351
352
355
354
353
352
352
352
352
353
353
353
353
352
351
352
351
351
352
353
351
351
351
350
349
350
351
352
351
351
351
351
349
350
351
351
351
351
350
350
350
350
352
352
353
351
350
349
348
348
350
350
350
351
351
351
351
351
352
353
353
355
353
352
351
351
353
353
354
354
351
350
350
350
350
351
352
351
352
351
351
350
351
352
352
353
353
352
351
350
350
350
352
353
354
352
352
351
352
350
352
353
354
354
354
353
352
352
352
352
353
353
353
353
353
353
353
354
354
355
355
355
354
355
354
355
357
359
357
357
356
355
354
354
355
356
356
356
354
353
352
354
355
358
360
361
362
363
367
367
369
370
370
369
368
368
366
366
365
364
363
362
360
359
358
357
355
354
354
353
352
351
350
350
351
352
353
353
351
351
350
349
350
351
351
352
352
352
351
351
352
352
353
354
355
354
353
353
354
357
363
372
383
393
404
411
424
432
440
441
435
423
402
371
333
291
253
228
217
218
230
247
266
284
301
316
328
333
342
347
351
354
355
356
358
360
359
359
359
357
358
359
360
361
361
360
360
359
359
360
361
363
364
364
365
364
366
365
367
367
368
367
367
367
366
367
368
369
371
371
371
371
371
371
371
372
373
374
375
374
374
374
374
375
377
379
378
378
377
377
377
377
379
380
381
382
382
382
383
384
386
387
388
389
390
390
391
392
393
395
399
398
399
398
397
397
397
398
399
400
401
401
400
400
400
401
402
402
400
398
396
394
392
392
392
390
388
387
383
384
380
378
375
373
371
368
366
364
361
359
358
358
357
355
353
351
349
347
347
348
348
348
346
345
344
342
342
343
344
344
342
341
341
340
341
342
342
343
344
342
341
341
340
340
342
343
344
346
345
345
345
346
347
347
348
347
346
346
345
345
346
348
349
349
348
347
347
347
349
350
352
352
351
350
349
349
349
350
351
350
350
349
348
348
348
347
348
349
349
348
348
346
345
344
345
345
346
346
346
345
344
344
344
345
345
347
346
346
345
346
347
349
350
349
349
348
347
346
346
347
348
347
348
348
348
347
348
349
351
351
350
348
348
347
348
348
349
348
349
348
347
346
346
347
348
350
349
348
348
349
347
347
347
348
349
348
347
345
345
346
346
347
348
349
349
348
347
347
348
350
351
350
349
348
347
347
348
348
350
350
350
350
349
349
349
350
350
350
350
350
349
348
348
349
350
352
353
354
354
355
357
359
362
366
367
368
366
367
364
363
363
363
361
360
358
358
355
355
355
356
355
352
350
348
347
348
348
350
350
352
352
351
349
348
348
348
348
348
350
348
348
347
347
347
347
348
349
349
349
350
350
351
352
356
359
365
374
385
398
413
429
442
449
449
440
423
400
366
325
280
240
225
206
202
210
228
249
270
290
306
321
332
341
347
351
354
356
357
357
356
355
355
354
355
355
356
356
356
356
356
356
357
358
359
360
360
360
360
360
363
362
365
365
365
365
363
363
363
364
365
365
366
366
366
365
367
367
369
370
371
372
372
372
372
373
373
375
376
376
375
375
375
376
377
379
380
381
381
380
380
380
381
383
385
386
388
389
389
390
392
394
396
397
397
397
397
397
399
400
401
403
404
405
405
404
404
404
404
404
403
403
402
401
400
399
399
398
398
395
393
391
389
385
384
383
381
381
378
375
372
370
368
365
364
362
360
359
357
356
355
353
352
351
350
348
347
345
344
343
343
343
343
343
343
342
342
342
344
343
344
344
344
343
343
344
345
346
346
346
345
345
345
345
345
347
348
348
348
347
347
348
347
347
346
347
348
349
348
348
349
351
352
352
353
353
352
351
351
350
352
352
352
352
354
351
350
350
351
352
352
353
351
348
349
349
348
349
349
349
350
349
348
348
348
351
350
350
351
352
349
348
349
349
349
349
349
348
347
346
346
347
348
348
348
347
346
345
346
347
348
349
350
350
349
347
347
348
348
349
350
351
351
350
350
350
350
352
351
351
350
349
348
348
349
350
351
351
350
350
349
349
349
350
350
350
351
351
350
349
349
350
350
352
353
353
352
351
350
351
352
353
354
354
354
352
352
351
352
352
353
354
355
356
358
359
362
365
367
369
370
371
371
371
370
370
368
367
365
362
360
359
359
360
359
358
356
354
352
350
350
350
351
352
352
352
351
350
350
350
351
352
352
351
350
348
347
348
349
350
351
352
352
351
351
351
351
351
352
353
357
364
374
387
402
419
437
452
461
461
453
437
414
380
335
285
260
219
194
190
200
219
243
267
288
305
319
331
341
349
353
357
358
358
356
357
355
355
356
357
358
358
358
358
358
358
359
360
361
362
362
361
360
361
364
365
367
367
367
366
365
365
366
366
368
368
369
368
368
367
367
371
371
373
375
375
374
374
374
375
375
376
377
378
376
376
377
377
378
379
380
381
382
382
384
385
387
388
389
390
391
391
392
394
396
396
399
401
402
403
404
404
406
407
408
410
410
409
408
409
409
411
411
412
412
412
409
408
408
406
406
406
405
403
401
399
397
395
391
390
388
386
383
380
378
375
373
371
369
367
365
362
358
357
357
355
355
354
352
350
346
346
346
346
346
346
346
346
345
344
343
343
344
345
345
344
344
343
344
345
345
346
346
345
345
344
344
344
344
345
346
346
344
343
343
343
344
346
347
347
348
346
345
345
346
347
348
349
349
349
349
349
349
350
350
351
350
350
350
349
349
349
351
350
351
350
348
347
347
347
348
350
348
349
347
346
346
347
347
348
348
347
346
345
345
346
345
346
346
346
346
345
344
344
345
346
347
347
347
346
346
345
347
346
348
348
347
347
345
345
345
345
346
347
348
348
347
346
346
346
347
348
348
347
347
346
347
347
347
347
348
348
348
347
348
347
347
347
348
348
347
347
347
346
347
347
348
347
346
346
347
347
348
348
348
349
349
348
347
346
346
347
349
352
355
357
358
360
363
364
366
368
367
366
365
364
363
363
361
361
360
359
356
354
353
352
351
350
350
348
347
346
346
346
345
347
347
348
348
348
347
347
347
347
348
348
349
348
346
346
345
345
346
347
345
347
346
347
348
350
356
363
374
389
404
421
438
453
462
462
453
436
410
371
322
268
220
190
180
186
192
214
240
265
287
307
324
337
345
350
353
354
355
356
356
356
356
355
355
355
356
356
357
357
358
358
358
358
357
357
358
359
361
360
361
362
363
363
363
365
366
366
366
366
365
366
366
368
369
370
369
369
369
371
372
373
374
373
375
373
373
374
373
375
376
377
377
377
377
377
377
379
380
382
384
384
385
385
387
388
390
390
391
392
393
393
393
396
398
400
402
404
405
405
406
406
407
408
409
410
409
408
407
408
407
407
407
406
406
405
404
403
402
402
400
399
397
394
392
389
386
384
383
382
379
375
371
368
367
364
362
361
359
357
355
353
351
349
348
348
349
348
347
346
345
343
343
344
344
346
344
343
342
342
343
343
345
345
344
344
344
343
343
344
344
344
345
344
344
344
344
344
346
347
349
348
347
346
346
345
345
346
349
347
348
347
347
347
348
349
350
351
350
350
349
349
349
350
351
353
351
350
349
348
349
349
350
350
349
349
347
347
347
347
349
349
349
349
348
348
346
345
346
347
347
346
346
347
347
347
348
349
349
348
348
348
347
347
346
347
348
348
348
347
346
346
346
348
349
347
347
347
346
345
345
346
346
347
348
347
346
347
346
346
348
349
349
349
348
347
347
347
348
349
348
347
346
346
345
346
346
348
350
350
348
348
347
347
347
348
350
349
348
347
346
346
347
349
349
349
350
349
349
351
352
356
359
361
363
365
366
368
368
368
368
368
366
365
363
362
360
359
358
358
358
357
355
353
351
350
349
348
348
347
347
347
346
346
347
348
348
348
347
346
345
342
343
343
345
346
346
345
345
346
347
348
349
347
347
348
349
353
356
367
382
400
417
437
453
465
468
464
450
431
401
356
302
245
200
176
173
186
208
235
249
274
296
314
329
341
349
354
355
356
356
354
354
354
356
355
355
356
355
355
357
356
357
358
358
359
359
360
360
361
362
363
363
363
363
363
364
364
365
367
366
366
366
366
367
367
368
369
369
370
370
370
371
371
372
373
374
375
374
374
374
374
376
377
378
379
379
379
380
379
381
383
385
386
387
388
388
388
390
392
394
394
397
398
399
400
401
402
405
407
409
410
411
412
412
412
414
415
414
414
413
412
411
411
411
412
412
411
409
407
406
403
401
399
398
395
393
389
385
384
381
379
377
375
372
368
364
363
361
359
358
357
355
353
351
349
347
346
346
346
345
344
342
342
340
340
339
338
339
340
339
339
339
339
340
340
342
342
341
341
340
340
341
342
343
343
341
342
342
341
342
342
343
345
345
344
345
343
344
345
346
346
346
346
346
346
346
347
347
348
347
348
347
347
347
347
349
350
350
351
350
350
348
347
347
348
349
350
349
348
348
348
348
348
349
348
349
348
347
346
346
346
347
347
347
346
347
346
345
346
347
347
347
346
346
345
345
345
346
347
346
346
345
345
344
344
344
344
344
344
343
344
342
342
343
345
343
345
345
344
344
345
345
346
347
348
347
346
346
345
346
347
348
348
347
346
345
344
344
344
346
347
347
347
346
344
344
344
345
346
346
346
346
344
344
344
345
345
346
345
345
344
344
344
345
346
348
350
351
354
356
359
362
365
366
366
367
366
364
363
363
362
362
361
361
360
360
357
355
354
354
354
354
352
350
347
345
344
344
345
346
346
346
346
345
345
346
346
346
346
345
343
343
343
344
344
345
346
346
346
345
346
346
347
345
346
347
347
350
356
368
384
403
422
442
461
471
474
469
457
437
406
360
302
271
215
178
164
171
190
216
245
272
294
313
329
342
351
356
357
356
354
353
352
353
354
354
355
355
354
354
355
356
357
358
360
360
360
358
359
360
361
363
364
364
365
365
364
364
365
365
367
368
369
369
368
368
368
369
370
371
372
373
372
372
373
374
375
375
377
377
377
376
376
377
378
379
381
382
383
382
382
383
385
387
389
390
392
392
393
395
397
399
401
403
404
404
405
406
408
411
413
415
416
416
416
417
417
418
419
419
419
417
416
416
416
416
416
416
414
412
411
408
406
405
403
402
399
397
393
389
385
384
381
378
376
373
369
366
363
361
360
358
358
355
353
349
348
348
347
346
346
344
343
342
342
341
341
342
342
342
341
341
340
340
340
340
340
341
341
341
340
340
341
342
343
343
344
344
343
343
342
343
343
344
344
345
345
344
345
345
345
347
347
348
349
348
348
348
348
348
349
349
349
348
348
347
347
348
349
349
349
348
348
348
348
349
349
350
350
350
347
348
348
349
348
348
348
348
347
348
347
347
347
347
349
348
348
347
347
346
347
348
348
348
348
347
347
347
348
347
347
347
346
344
344
345
345
346
347
347
347
348
346
345
345
345
346
346
346
346
346
346
347
347
348
349
349
350
348
347
347
347
348
348
349
349
349
348
347
347
348
348
349
348
349
347
346
345
347
348
349
349
349
348
348
347
348
349
350
351
351
350
350
348
348
349
350
351
351
350
350
349
348
349
349
351
351
351
348
349
348
348
347
348
349
349
349
349
349
351
352
353
355
357
357
358
361
364
366
369
371
372
371
369
368
366
366
365
366
366
366
365
363
361
358
358
358
358
359
358
357
353
351
349
348
349
348
348
347
347
347
348
347
347
347
347
346
345
344
344
345
346
347
347
348
347
348
348
349
349
349
348
347
347
348
351
359
373
382
402
421
442
461
475
481
478
468
451
425
381
323
258
204
170
161
171
192
221
249
262
286
307
325
340
351
357
358
359
358
357
355
355
355
355
355
355
354
354
354
356
358
358
360
360
360
360
361
361
361
362
363
363
363
363
365
366
367
368
368
367
368
368
368
368
369
370
370
372
372
372
373
374
375
376
376
377
376
376
376
377
378
379
380
381
381
382
